-0.32904458,-0.41099384,-0.38727874,-0.3906261,-0.3663269,-0.38772535,-0.3859579,-0.36907214,-0.36182684,-0.37798253,-0.3544593,-0.36302075,-0.37324953,-0.38246474,-0.37801194,-0.37759688,-0.37882656,-0.38935617,-0.3882517,-0.39552823,-0.3883565,-0.3830134,-0.39743635,-0.38821402,-0.3911176,-0.40133384,-0.39908642,-0.39842594,-0.38163537,-0.3806256,-0.39680892,-0.41564944,-0.4126428,-0.39228442,-0.39251366,-0.41007635,-0.40201372,-0.39494553,-0.39405203,-0.40288982,-0.40087846,-0.3937768,-0.39881873,-0.4067363,-0.4035998,-0.402383,-0.4099894,-0.42502618,-0.40298426,-0.40432316,-0.42054698,-0.41563404,-0.42787722,-0.41810453,-0.4146238,-0.41459545,-0.40419266,-0.40676993,-0.4153098,-0.42262256,-0.39497337,-0.40556923,-0.41681033,-0.39704844,-0.38788497,-0.39280716,-0.40885088,-0.4159743,-0.42466447,-0.4175998,-0.40089476,-0.4059746,-0.40975687,-0.39814708,-0.39439964,-0.39966527,-0.40025392,-0.3994401,-0.40454498,-0.4225109,-0.4341053,-0.42329568,-0.4123616,-0.4245834,-0.42472124,-0.40807983,-0.40755093,-0.40557304,-0.38462344,-0.378851,-0.3853343,-0.39070138,-0.39727354,-0.40273145,-0.4093259,-0.40995502,-0.40415382,-0.4085111,-0.418932,-0.42357436,-0.4249553,-0.4013412,-0.3951326,-0.3942922,-0.39912206,-0.4044703,-0.4050707,-0.39634934,-0.39856866,-0.39309967,-0.3843486,-0.3855164,-0.38372704,-0.37370694,-0.3721904,-0.3812628,-0.37824187,-0.38473356,-0.39036235,-0.3935848,-0.38695768,-0.3954485,-0.3906414,-0.37153554,-0.37391308,-0.37059015,-0.3642256,-0.37783256,-0.3956137,-0.3907355,-0.38503158,-0.37345865,-0.36904004,-0.37746364,-0.39171597,-0.3834811,-0.38735947,-0.37925336,-0.37812927,-0.37619823,-0.37612107,-0.38878375,-0.37706763,-0.3722912,-0.3691506,-0.374891,-0.3756254,-0.38145843,-0.3743133,-0.36813256,-0.3769519,-0.38158658,-0.36887953,-0.3678842,-0.36705777,-0.37198976,-0.3607694,-0.35856503,-0.36666223,-0.3605661,-0.36447254,-0.3650264,-0.3664232,-0.37135625,-0.36867842,-0.37603512,-0.37252355,-0.3720436,-0.3581492,-0.35109258,-0.36164036,-0.35836962,-0.36307013,-0.3625703,-0.35867926,-0.37090117,-0.37755296,-0.36151755,-0.35764623,-0.3539576,-0.3595693,-0.35652322,-0.36430874,-0.347907,-0.35980526,-0.35398823,-0.37088633,-0.3734177,-0.35434082,-0.3556934,-0.3634772,-0.37242356,-0.3729434,-0.36987793,-0.36325344,-0.3542127,-0.36755142,-0.35829157,-0.34829283,-0.35740447,-0.3660956,-0.36939847,-0.3687734,-0.34988126,-0.36953855,-0.37535217,-0.36606628,-0.3757938,-0.36262238,-0.35970697,-0.36423036,-0.36052477,-0.36658022,-0.36107042,-0.36065865,-0.35895073,-0.38072172,-0.36368176,-0.34149,-0.3719936,-0.3624799,-0.3687389,-0.3661692,-0.36905244,-0.36259633,-0.34644154,-0.35559326,-0.36276588,-0.36319837,-0.35180065,-0.3453546,-0.3496791,-0.34321707,-0.35111567,-0.3561959,-0.34975976,-0.36423394,-0.37229818,-0.34831583,-0.34504896,-0.34934628,-0.36961472,-0.37956902,-0.3673719,-0.3430139,-0.35292187,-0.35542113,-0.34549773,-0.33831316,-0.34796605,-0.3592582,-0.360973,-0.35606566,-0.34866008,-0.35069138,-0.35401553,-0.35509568,-0.34676325,-0.34717703,-0.3578347,-0.36508024,-0.3517923,-0.33619827,-0.3384033,-0.3302846,-0.3173668,-0.32471344,-0.3354915,-0.333221,-0.3242983,-0.3485153,-0.33673298,-0.3341505,-0.35278746,-0.35561082,-0.34522536,-0.34662527,-0.34693864,-0.33790728,-0.344607,-0.34945282,-0.35000023,-0.35162103,-0.35590056,-0.3545711,-0.34651035,-0.35019648,-0.34582764,-0.32657063,-0.32548976,-0.32870433,-0.33122563,-0.32830682,-0.3362876,-0.34092394,-0.33891124,-0.33044952,-0.3364866,-0.33134547,-0.33017027,-0.32516646,-0.33223495,-0.3412749,-0.33694193,-0.33422804,-0.3359467,-0.3324899,-0.3243486,-0.32315642,-0.31496873,-0.3243508,-0.31847075,-0.31654888,-0.31884962,-0.3094209,-0.31200945,-0.3304422,-0.3283479,-0.32386267,-0.3259248,-0.3285258,-0.330707,-0.32291755,-0.34114882,-0.30925557,-0.2983018,-0.31633893,-0.30657923,-0.30278784,-0.2987463,-0.30085,-0.2998027,-0.30924627,-0.31920257,-0.31303445,-0.30868736,-0.31087887,-0.30948585,-0.30831394,-0.29985213,-0.30095765,-0.3111242,-0.31427193,-0.3065404,-0.29466185,-0.27505773,-0.2981681,-0.28964385,-0.29986084,-0.3021829,-0.290599,-0.28975824,-0.299111,-0.29391605,-0.28944853,-0.28960368,-0.28477684,-0.27642274,-0.2784405,-0.2792483,-0.29513618,-0.2840244,-0.2646475,-0.27112255,-0.27659002,-0.27647313,-0.26996127,-0.27348906,-0.2613046,-0.27148154,-0.25899673,-0.26203427,-0.2548163,-0.2517471,-0.26295617,-0.27384216,-0.25318795,-0.25824943,-0.25927323,-0.26139152,-0.24862899,-0.23599751,-0.24219924,-0.26119518,-0.2548494,-0.24332507,-0.24172883,-0.25393093,-0.24908137,-0.24759766,-0.22931874,-0.22708206,-0.22701268,-0.23298538,-0.23573199,-0.23457342,-0.23463507,-0.22861199,-0.23155703,-0.22194721,-0.21082668,-0.21584262,-0.21905366,-0.19641887,-0.18898246,-0.19808075,-0.17930317,-0.18145557,-0.19075505,-0.19989094,-0.19538224,-0.19434749,-0.18746941,-0.1846819,-0.18501118,-0.18966664,-0.18877451,-0.1764254,-0.17555621,-0.17408407,-0.18495625,-0.17718558,-0.17001094,-0.16669051,-0.17163281,-0.17653237,-0.17371662,-0.17757814,-0.17856829,-0.16309714,-0.15027824,-0.14938717,-0.153646,-0.16143845,-0.16247255,-0.16629826,-0.1513744,-0.14388134,-0.13733454,-0.15265907,-0.15879776,-0.15061082,-0.14737572,-0.14745323,-0.15067305,-0.14982258,-0.14940701,-0.1426422,-0.13927664,-0.14078632,-0.14292571,-0.14321822,-0.14745297,-0.13362798,-0.121603094,-0.13337918,-0.13399328,-0.12292244,-0.1267108,-0.12015216,-0.12478127,-0.118599236,-0.11460118,-0.11563777,-0.10770244,-0.09589398,-0.11694055,-0.11156094,-0.11287002,-0.11863055,-0.11702115,-0.11781552,-0.116168626,-0.10877128,-0.104574256,-0.095411904,-0.09173468,-0.1106305,-0.11782214,-0.12105387,-0.114571825,-0.116373114,-0.1202953,-0.1198982,-0.120096005,-0.11959143,-0.10793847,-0.09795428,-0.108167656,-0.12431495,-0.11165372,-0.10875367,-0.11400403,-0.121394165,-0.11912491,-0.12891579,-0.113202274,-0.10913232,-0.09824129,-0.09751892,-0.1108128,-0.11236218,-0.0971737,-0.106756926,-0.11071204,-0.100343525,-0.09624645,-0.11593299,-0.10707218,-0.11311482,-0.08383907,-0.09174476,-0.0972348,-0.07562846,-0.07939221,-0.088974446,-0.10278546,-0.101655975,-0.08867498,-0.08037975,-0.080221206,-0.08572503,-0.08147357,-0.07297056,-0.07972287,-0.08865739,-0.08940227,-0.06667178,-0.07661967,-0.08722242,-0.079314984,-0.07375877,-0.060556293,-0.049012013,-0.043394998,-0.04674055,-0.04829467,-0.055935696,-0.06913492,-0.073629394,-0.06702299,-0.075749695,-0.07965146,-0.07056854,-0.07066357,-0.06449747,-0.060310148,-0.05932748,-0.06290244,-0.06878468,-0.07952739,-0.073428005,-0.071384534,-0.076205246,-0.070953734,-0.060707953,-0.060804702,-0.07467491,-0.06654579,-0.057819813,-0.06621817,-0.06922953,-0.071037345,-0.066752076,-0.0616071,-0.054073345,-0.058019646,-0.0627875,-0.047814935,-0.044169944,-0.050496146,-0.047361255,-0.04197098,-0.055439536,-0.050457776,-0.050279014,-0.050011113,-0.0586043,-0.05486382,-0.044885483,-0.053835925,-0.043778174,-0.039505996,-0.04032317,-0.039655432,-0.04073306,-0.051190395,-0.054734737,-0.042900197,-0.042987358,-0.054649357,-0.055387042,-0.05219918,-0.037849825,-0.034470525,-0.0395568,-0.034015886,-0.028166471,-0.021418277,-0.02308935,-0.026487246,-0.03457547,-0.024987536,-0.006923494,-0.008538575,-0.01064329,-0.008677534,-0.005715113,-0.014291268,-0.011336899,0.00770912,-0.000675486,-0.015893305,-0.017341344,-0.01784045,-0.021148887,-0.018082356,-0.005420348,-0.000712439,-0.014100406,-0.01885863,-0.015111469,-0.006256292,-0.008709905,-0.002841679,0.000611402,-0.012614923,-0.021638615,-0.013857813,-0.009336966,-0.000674373,0.003350056,-0.013476206,-0.004635555,-0.010192349,0.008884658,0.002627431,-0.004562401,0.004187544,0.00157297,-0.009318577,0.001846431,0.003409613,-0.000909933,0.000677249,-0.005114134,-0.004027799,0.001914233,0.006568097,-0.003347516,-0.004011519,0.008427837,-0.009971912,-0.004320251,0.008161521,0.010252711,-0.001494829,0.003713089,0.016357366,0.021214878,0.014930253,0.020759486,0.01954421,0.016557598,-0.003858674,0.004925125,0.009989874,0.02099863,0.03480339,0.028004145,0.01913996,0.03395231,0.036862053,0.02569182,0.028459447,0.03439712,0.012606842,0.020296142,0.024775224,0.02918713,0.034066625,0.0362732,0.032862153,0.042354014,0.040834952,0.04609649,0.051333338,0.031279128,0.02755384,0.024026651,0.047425907,0.059281006,0.059935514,0.0455355,0.041345034,0.044542782,0.04956341,0.04426282,0.044835504,0.05208472,0.06455906,0.05369882,0.04864311,0.05809036,0.07076837,0.06494022,0.06485894,0.06599074,0.05856913,0.06449291,0.076560035,0.06308657,0.075142786,0.07007513,0.07834208,0.07489939,0.0646152,0.06507142,0.06505826,0.064865716,0.07790864,0.07730452,0.08514924,0.07461501,0.08637307,0.091606006,0.09371249,0.08930948,0.09263718,0.099247575,0.104465656,0.09908984,0.09398785,0.09795369,0.103924975,0.10544874,0.098552205,0.10433707,0.11109753,0.10635146,0.10370146,0.10858882,0.122386836,0.12725472,0.10582975,0.10312727,0.11691414,0.11273393,0.10460306,0.098348804,0.10073613,0.09469787,0.10169212,0.100445755,0.11479424,0.10912101,0.10649115,0.11017728,0.108057715,0.099842355,0.10963349,0.10971676,0.1104551,0.109454975,0.11061331,0.109334804,0.11039291,0.09991551,0.09621944,0.11183006,0.12024428,0.10851943,0.11077022,0.09594344,0.11026214,0.11123698,0.09905937,0.10979047,0.11831257,0.12058448,0.12392079,0.13303053,0.13918051,0.13142532,0.12632556,0.1244593,0.13177526,0.13493437,0.13544577,0.13123232,0.12511222,0.12502201,0.12493739,0.12513584,0.12470091,0.13415219,0.12871435,0.12617987,0.13119292,0.12924795,0.1262263,0.13100508,0.1436516,0.14630724,0.15919067,0.15431231,0.13180317,0.11727637,0.1268914,0.13023724,0.1390992,0.15423785,0.17319086,0.1647258,0.1732629,0.17943288,0.18664363,0.16930707,0.15215662,0.15661319,0.14501402,0.14487655,0.13656992,0.1399026,0.15036525,0.15363875,0.15643306,0.15186223,0.15281536,0.15543179,0.15057261,0.14937645,0.15105908,0.14624849,0.1487818,0.14956647,0.14713056,0.1644597,0.16143839,0.16339457,0.14848983,0.14681368,0.13939904,0.14406362,0.16344312,0.1552293,0.15105361,0.15477678,0.16009764,0.17005333,0.16990815,0.16927338,0.16318941,0.15435107,0.1452404,0.14862658,0.1353303,0.15223815,0.15974078,0.14210165,0.14068756,0.1480818,0.13134414,0.14487363,0.15100378,0.15370724,0.15039532,0.14852779,0.1413513,0.1400657,0.13900054,0.13130097,0.14312539,0.14731075,0.151444,0.14852329,0.15234125,0.15398383,0.1586868,0.15964684,0.15202202,0.14161728,0.15399356,0.14917603,0.14421444,0.16572624,0.15305886,0.1578332,0.1607183,0.14945498,0.13839625,0.14185835,0.14737122,0.16270916,0.16503838,0.16029765,0.14871292,0.15123495,0.14864448,0.15172109,0.13851225,0.13255405,0.14027576,0.14245786,0.14909686,0.15068787,0.14844224,0.14507934,0.14432356,0.14929932,0.14949648,0.15199311,0.15158567,0.14342351,0.14586051,0.14848709,0.13949554,0.14347008,0.15184693,0.14865766,0.1514455,0.15409948,0.15632613,0.14933255,0.14003624,0.14548084,0.16109994,0.15790446,0.1520534,0.14907627,0.15544361,0.15995431,0.16001762,0.16035536,0.15308793,0.14390506,0.14668472,0.15135853,0.15683489,0.1498548,0.15559661,0.16032176,0.17704459,0.16991855,0.14655678,0.13563552,0.12853187,0.1254622,0.13680835,0.14048442,0.135659,0.13373509,0.12850595,0.122612104,0.14058995,0.15081652,0.15566379,0.15028684,0.13219948,0.12977831,0.13435963,0.1295763,0.13178028,0.13788778,0.14439063,0.14468011,0.13935612,0.13336062,0.13925919,0.13560133,0.14454487,0.13790187,0.14793421,0.14531647,0.13489172,0.1510783,0.132721,0.14642371,0.14952822,0.14759658,0.14687832,0.14185368,0.13744381,0.1475953,0.14579481,0.15084712,0.15745138,0.14259599,0.14894974,0.14981471,0.14604156,0.13656841,0.13397112,0.1513983,0.14147946,0.1351746,0.12328588,0.12939645,0.13803197,0.14437416,0.15788244,0.16226672,0.15327916,0.1440319,0.14163417,0.14407368,0.14484593,0.14843337,0.15483637,0.14349161,0.15698408,0.17346051,0.16206445,0.15967464,0.16036753,0.15060228,0.14408605,0.1474082,0.14813153,0.14324082,0.16037616,0.16990168,0.17074482,0.16640933,0.17172498,0.1806467,0.16717757,0.16873747,0.17691186,0.1669874,0.16032372,0.1712945,0.16596843,0.15841371,0.16444993,0.16046701,0.16075693,0.17607278,0.17324784,0.15474264,0.15225054,0.15842412,0.15392749,0.14534003,0.15270422,0.15521063,0.15015084,0.15776359,0.16021618,0.16001579,0.15522231,0.150337,0.16715816,0.17831491,0.18446739,0.17549175,0.17030308,0.17738329,0.18111606,0.1723483,0.1604302,0.16032052,0.17836656,0.17620671,0.1535827,0.16145463,0.16452426,0.17280944,0.16245687,0.16393201,0.16402201,0.1495915,0.1509325,0.16179231,0.1620765,0.15936452,0.1659684,0.16396691,0.16826032,0.1703173,0.17847255,0.18242346,0.19123009,0.18708184,0.18086249,0.18424328,0.1844456,0.16895078,0.16958454,0.18065108,0.15738675,0.16574733,0.1709493,0.16737238,0.15745081,0.14946212,0.15722705,0.15780176,0.15699969,0.16133238,0.15441796,0.15641509,0.16209108,0.18142776,0.16833471,0.14206891,0.13707295,0.13114071,0.133677,0.13415945,0.15442944,0.15187034,0.13964534,0.14966275,0.1462672,0.1441369,0.1473853,0.15583767,0.15489073,0.15156871,0.14933147,0.15041976,0.14972924,0.15013643,0.15004645,0.14530481,0.14580485,0.15070876,0.14975667,0.14689572,0.13938233,0.1413727,0.14633994,0.15591815,0.1648102,0.16443309,0.16033874,0.15715498,0.14297806,0.13912518,0.15430415,0.15979217,0.1537384,0.15443645,0.13679405,0.15337564,0.16007918,0.15339984,0.15853803,0.16015287,0.15999714,0.15997678,0.15999274,0.1601822,0.1565571,0.14993085,0.15570194,0.14325795,0.13353656,0.13562614,0.13928345,0.14599662,0.14389278,0.14838757,0.1501608,0.14143822,0.13086863,0.12137695,0.1380211,0.1397592,0.13607596,0.126973,0.11971442,0.119589806,0.123960316,0.12503974,0.12589824,0.13086087,0.12722202,0.12387793,0.14333154,0.12707248,0.12127387,0.12548576,0.13152368,0.14553328,0.13781923,0.13676351,0.14101784,0.13588087,0.13075979,0.13433103,0.12773055,0.12400625,0.12938483,0.12917674,0.12766221,0.14243346,0.1361168,0.1319701,0.12787394,0.122374214,0.13102938,0.12754875,0.11705936,0.12314393,0.1328621,0.13117841,0.123405576,0.1293398,0.1301042,0.12993465,0.1300602,0.13004987,0.1268144,0.11511282,0.12135999,0.116471075,0.12085536,0.122432485,0.115282744,0.13176437,0.1368328,0.13898072,0.12617716,0.12058516,0.119441174,0.121662155,0.12845391,0.13016666,0.12620099,0.1278938,0.11914822,0.11785867,0.117019214,0.12199945,0.111276396,0.11621479,0.1268513,0.12074534,0.11494269,0.10370633,0.1090417,0.11638848,0.1140445,0.12038218,0.1256681,0.13135424,0.1264835,0.12501842,0.12851244,0.121364795,0.13363439,0.1321563,0.12946856,0.126029,0.13009115,0.12858868,0.12156933,0.119348936,0.121279225,0.12196032,0.10807409,0.112856925,0.12595846,0.13163449,0.12308404,0.1270822,0.12037511,0.12455715,0.11558502,0.12181866,0.12302684,0.1216811,0.12993446,0.124659136,0.10793198,0.10657607,0.1112253,0.105530985,0.11052415,0.13165286,0.12710051,0.12536284,0.121069424,0.11546398,0.11430857,0.11741363,0.11798594,0.11355562,0.12942177,0.12284675,0.1136884,0.11793848,0.12413693,0.12071522,0.113238394,0.11093774,0.121016555,0.12966439,0.13430293,0.13562642,0.13316895,0.12702236,0.12085578,0.124041684,0.12638228,0.13032839,0.13001305,0.1268074,0.11891217,0.11825949,0.13961956,0.12143203,0.12100933,0.12160654,0.108892314,0.12939738,0.14645924,0.15172875,0.13918509,0.14328425,0.14625178,0.12607549,0.13267513,0.12667045,0.11779984,0.116060786,0.128126,0.14139463,0.12080758,0.13317822,0.1385039,0.13455652,0.13162754,0.12964693,0.14221846,0.14326194,0.13899997,0.14395133,0.14586806,0.15548722,0.15352437,0.1445531,0.1315072,0.12508398,0.119024634,0.124499105,0.14552477,0.15089142,0.14511435,0.13795978,0.12849063,0.13302541,0.14218152,0.14676969,0.14221841,0.14400384,0.15100165,0.1526961,0.17835295,0.18139644,0.18372624,0.15989777,0.14016455,0.14048454,0.13868986,0.12341379,0.11659846,0.14670423,0.15327886,0.13597447,0.14781281,0.13580823,0.1283273,0.12701324,0.12874909,0.13268653,0.13493179,0.13550365,0.13383448,0.1321857,0.14109749,0.13921039,0.14388667,0.14975429,0.14371102,0.13972266,0.13819242,0.1266283,0.12069853,0.13101913,0.137289,0.1403517,0.14318155,0.14180745,0.14466265,0.15282366,0.14021632,0.13739918,0.14540184,0.13142484,0.11871231,0.13776417,0.14668292,0.1488167,0.15579359,0.14598127,0.1484667,0.14967825,0.15548614,0.15184103,0.13811882,0.14330064,0.14583169,0.1350232,0.14357153,0.14371972,0.12792219,0.14608853,0.14340575,0.16406013,0.1410954,0.13938287,0.15688212,0.1447889,0.13891831,0.13464256,0.13458453,0.14225343,0.15010814,0.13855827,0.14293034,0.14256628,0.13900949,0.14103328,0.14454246,0.14561005,0.14415173,0.14633203,0.13381591,0.13414669,0.14146087,0.124135785,0.12304469,0.11767127,0.12978077,0.1296022,0.11540483,0.115230784,0.10609281,0.11149026,0.13310042,0.13845238,0.13027376,0.13444902,0.13539565,0.13447222,0.13589276,0.13049461,0.13531975,0.13832514,0.12744626,0.121852495,0.119861,0.114701994,0.11251553,0.12633605,0.112137645,0.110170364,0.11827208,0.115050316,0.10794269,0.11446426,0.1105731,0.12400572,0.1301377,0.12082332,0.11131483,0.106521934,0.10388349,0.107028894,0.10818855,0.104370184,0.105254546,0.1093522,0.11688563,0.118442155,0.11418103,0.11237312,0.09947458,0.10123951,0.096919514,0.09784785,0.10025146,0.10041009,0.09823136,0.09798072,0.10899147,0.116818234,0.108989604,0.10596237,0.100958705,0.095770694,0.10278052,0.09174342,0.0911457,0.10070575,0.08967142,0.09465091,0.09450638,0.09571106,0.09400449,0.09820265,0.10347756,0.110751025,0.10713097,0.09000899,0.08549919,0.10296978,0.104111984,0.08976552,0.088526145,0.08370476,0.08935065,0.08967044,0.08547846,0.09145373,0.086348884,0.085247606,0.07572713,0.08810596,0.09121495,0.07341689,0.08390093,0.0798855,0.07521562,0.07407642,0.08061848,0.08653341,0.075029984,0.0758469,0.0822998,0.08542901,0.08793691,0.09615658,0.09759133,0.07909959,0.07924773,0.09097263,0.0883824,0.08636025,0.081900485,0.08115433,0.068467446,0.068747714,0.089640215,0.09871613,0.07936554,0.07446454,0.07515311,0.087712206,0.0835159,0.06327297,0.073681235,0.07508804,0.08139638,0.08544704,0.08271158,0.07527579,0.06707045,0.074638024,0.08549589,0.0855638,0.074570976,0.07976436,0.08106887,0.08413796,0.078382276,0.081415914,0.07805715,0.07141833,0.07627716,0.08421705,0.08112313,0.080056585,0.08544645,0.08347465,0.076518506,0.07459117,0.075448245,0.066938184,0.06375819,0.079648785,0.060975917,0.07458906,0.07333633,0.07069331,0.06631685,0.068731956,0.074335,0.07634405,0.07014184,0.0690304,0.080821425,0.07892232,0.08187001,0.08355489,0.07861178,0.08464951,0.08382627,0.07708449,0.09474144,0.08900743,0.08397922,0.08533016,0.07928234,0.079686716,0.0680357,0.06453849,0.07805122,0.076161474,0.08322318,0.092971765,0.08046623,0.094462804,0.08704955,0.080648124,0.07198969,0.05919159,0.074402064,0.093210764,0.08921032,0.078009374,0.08114096,0.08695123,0.071473666,0.0926622,0.08369439,0.075976595,0.086016305,0.07366112,0.0841588,0.08540635,0.10361963,0.098633096,0.08753608,0.10236868,0.09611235,0.095100224,0.0862452,0.089765765,0.09048735,0.08703265,0.08765401,0.09159166,0.08762413,0.08706025,0.09061857,0.08629332,0.08962336,0.11916234,0.103529945,0.09039042,0.09681973,0.08946412,0.09086639,0.09849052,0.111243054,0.120053165,0.114043236,0.10731544,0.12397571,0.12266577,0.11203259,0.10519801,0.1033432,0.09297867,0.10097881,0.10668033,0.094041474,0.09285481,0.09751138,0.085663125,0.081576906,0.07969634,0.084888235,0.07846004,0.08330183,0.08867163,0.09948556,0.099900156,0.09036418,0.08458504,0.07815045,0.065678574,0.08741841,0.08974349,0.08823311,0.07988102,0.08084629,0.08485496,0.0838481,0.07815615,0.085140765,0.07902936,0.071391776,0.084390044,0.09380953,0.09507944,0.094997525,0.08801581,0.07820256,0.084049016,0.08099478,0.09353519,0.09405154,0.081567466,0.07976154,0.08679921,0.095943466,0.08811773,0.09460844,0.10102664,0.09611611,0.09052223,0.10102087,0.09759782,0.09470383,0.095011696,0.099412374,0.0930814,0.073421486,0.07529509,0.08132314,0.08376241,0.08560726,0.0849061,0.08255485,0.07920103,0.07983522,0.07662269,0.083898425,0.07052385,0.088961355,0.07980628,0.075558424,0.07398608,0.07807475,0.08700248,0.087396696,0.076177865,0.08002348,0.08502731,0.085697405,0.08819749,0.08484517,0.060581975,0.07552998,0.083174504,0.07517164,0.07837322,0.06778651,0.060711548,0.07108647,0.07105396,0.05999453,0.07454285,0.07157084,0.06968155,0.083602265,0.09165766,0.084744,0.06757103,0.06150626,0.054365065,0.06341106,0.06714447,0.05581448,0.054667775,0.060230304,0.05804692,0.05865849,0.064019255,0.058087304,0.07009538,0.06295932,0.051543236,0.055288423,0.058311366,0.04856456,0.051304385,0.04974669,0.0610167,0.04464462,0.033907663,0.044177406,0.06330159,0.052737154,0.050138276,0.04490357,0.052942704,0.05776994,0.044648483,0.052678954,0.060350142,0.059007447,0.053097267,0.046721485,0.04445599,0.05820991,0.0497056,0.05173243,0.056127597,0.050872907,0.045360897,0.04482568,0.04508651,0.045140646,0.04150066,0.0436756,0.045571428,0.03584051,0.040914487,0.04595783,0.04440451,0.039628256,0.040972665,0.034321576,0.02860327,0.03959926,0.040917948,0.04470082,0.03509074,0.042732157,0.036793295,0.027280927,0.028580891,0.038517963,0.04729754,0.059052024,0.031294942,0.025176823,0.024268435,0.02907125,0.03498754,0.04581884,0.035375938,0.041950382,0.038004607,0.03078072,0.051226184,0.04830705,0.039097454,0.033805087,0.031061703,0.023693044,0.02728964,0.032796793,0.036008634,0.029717853,0.03052705,0.029347079,0.030957207,0.025472043,0.043229315,0.050986767,0.038475186,0.026084773,0.021286465,0.028251374,0.031300243,0.027364839,0.0250729,0.021459825,0.014751577,0.009166952,0.003634111,0.010614569,0.019832334,0.015654031,0.020662284,0.026834257,0.016399126,0.007854448,0.016134124,0.019477025,0.02029671,0.021964729,0.026728462,0.019025821,0.035004213,0.04237375,0.030748142,0.026835453,0.010694755,0.016874319,0.02763364,0.032792617,0.035913162,0.03419712,0.036021087,0.03161668,0.018355334,0.014125308,0.019129004,-0.002044617,0.004752608,0.010814242,0.006470461,-0.00025288,0.006844176,0.010568364,0.022485027,0.018046163,0.014112874,0.021321071,0.01631826,0.005829714,0.005232741,0.004786306,0.0182621,0.022615623,0.009709807,0.01772287,0.020989027,0.03204086,0.04011521,0.03199545,0.044731505,0.029495522,0.008365754,-0.00470886,0.005920673,0.02135188,0.010149925,0.009579413,0.002221059,0.001805229,0.010144063,0.008715941,0.007277443,0.017874448,0.035444483,0.03389694,0.019179374,0.00853968,0.007317585,0.022233984,0.025819305,0.01922993,0.017370164,0.02323656,0.009259666,0.01798292,0.020997213,0.023956912,0.019485505,0.020031355,0.023355924,0.03463595,0.0343494,0.017456977,0.013544528,0.026222374,0.019098027,0.015237683,0.016190821,0.021504613,0.018665154,0.021769142,0.029464362,0.029617138,0.019814633,0.028288163,0.024826,0.008853461,0.013118993,0.027122375,0.030227738,0.039011475,0.033205565,0.02369952,0.023848107,0.01410769,0.034151226,0.020590601,0.002515078,0.010813588,0.02016518,0.014735515,0.022290202,0.01213778,0.014254528,0.029017027,0.017985342,0.020174647,-0.003658201,0.004321748,0.014337928,0.015512568,0.008471153,0.013207209,0.013904114,0.023216363,0.024654014,0.021025222,0.024428183,0.013680112,0.008644874,0.015816893,0.012442336,0.00414646,0.007379375,0.014842132,0.009847152,0.011478998,0.014694731,0.018156009,0.01701202,-0.003394529,-0.006879745,-0.008321771,-0.004455747,-0.001887363,0.005309342,-0.002154817,-0.012955314,-0.012978606,-0.005371617,-0.004714738,0.006253691,0.00193181,0.004858864,0.012328996,0.002704875,-0.000826522,0.017909167,0.008384097,0.004213298,0.005400435,-0.001796721,-0.003835457,0.005440134,0.018810246,0.010903235,0.00365688,-0.000972911,0.003584947,-0.001531546,-0.024258662,-0.018458705,-0.005152013,-0.000968524,-0.013836561,-0.018963974,-0.009566523,-0.011786046,-0.015952952,-0.014221992,-0.015977671,-0.019983478,-0.02872216,-0.024511084,-0.018577881,-0.021139605,-0.02472357,-0.024111332,-0.015804,-0.015571733,-0.018147646,-0.023917269,-0.024923375,-0.014275896,-0.033100933,-0.048318658,-0.037760213,-0.021897845,-0.03001933,-0.02532157,-0.025699487,-0.024250291,-0.035820458,-0.037081577,-0.03825761,-0.049182363,-0.05112148,-0.04668364,-0.050677832,-0.052586,-0.04509179,-0.05467803,-0.040475484,-0.043772582,-0.04150157,-0.03477859,-0.029657917,-0.03125443,-0.041020744,-0.046493106,-0.038969394,-0.03691035,-0.047902815,-0.04853487,-0.033112265,-0.028884426,-0.037992515,-0.044374846,-0.035795853,-0.038601495,-0.040548135,-0.039935835,-0.049560416,-0.056213778,-0.050942544,-0.05395984,-0.056040913,-0.05234855,-0.05052756,-0.042295206,-0.04025212,-0.055866696,-0.055859502,-0.061889924,-0.05510178,-0.051449336,-0.053730775,-0.048216395,-0.043774627,-0.04625196,-0.047429286,-0.04896267,-0.049844686,-0.041011844,-0.07210096,-0.056861315,-0.0556575,-0.059092734,-0.055417996,-0.06952006,-0.064625084,-0.059740935,-0.052617695,-0.064206265,-0.071518965,-0.06434581,-0.054202847,-0.057472322,-0.05799761,-0.0505745,-0.049457334,-0.052713536,-0.06773891,-0.058398288,-0.054057885,-0.060664587,-0.062567174,-0.047142327,-0.054680225,-0.053664114,-0.0704514,-0.07256029,-0.06464296,-0.064142734,-0.0731301,-0.057383318,-0.06793505,-0.07905466,-0.06425201,-0.06319467,-0.057293624,-0.06387501,-0.059478227,-0.059800655,-0.070059545,-0.07350248,-0.05234618,-0.04397331,-0.049477596,-0.06794374,-0.073622085,-0.060052477,-0.058045536,-0.056463063,-0.065217845,-0.059440043,-0.04961878,-0.050470106,-0.047318246,-0.04394677,-0.050702862,-0.0541219,-0.060033895,-0.07391346,-0.053401075,-0.054244783,-0.05985785,-0.053631976,-0.05635829,-0.050181556,-0.06402664,-0.06419772,-0.059571847,-0.057980455,-0.050338,-0.045572136,-0.038366094,-0.034693033,-0.037153564,-0.044979278,-0.039435294,-0.037386768,-0.05328244,-0.040453646,-0.0336585,-0.04032322,-0.045522284,-0.041997366,-0.028221989,-0.023661556,-0.04463935,-0.046912763,-0.026503101,-0.03305486,-0.020349028,-0.030382877,-0.033576265,-0.03012382,-0.029277872,-0.034206472,-0.04358507,-0.04662958,-0.040323164,-0.034655318,-0.0313475,-0.029777491,-0.029667456,-0.031994708,-0.035512548,-0.03492581,-0.03475992,-0.03570202,-0.032437652,-0.032356355,-0.035732277,-0.03076478,-0.03340536,-0.023148576,-0.028582629,-0.030320149,-0.024973216,-0.020377437,-0.027300213,-0.033168737,-0.032295637,-0.028270612,-0.026677042,-0.030180182,-0.027985845,-0.019941295,-0.025227295,-0.024020288,-0.028018188,-0.02516783,-0.014684067,-0.01590445,-0.025710585,-0.021549799,-0.012671885,-0.02340853,-0.029681591,-0.029830972,-0.021730637,-0.022765582,-0.025446732,-0.025299747,-0.028927555,-0.01611513,-0.018066721,-0.020301877,-0.024490817,-0.03183908,-0.04455539,-0.04974191,-0.028772691,-0.024289211,-0.037270505,-0.039349757,-0.043179594,-0.045122854,-0.0627242,-0.059467707,-0.044486232,-0.03962962,-0.0400909,-0.039368894,-0.02382354,-0.03754653,-0.041328,-0.028904442,-0.031567417,-0.040883765,-0.05345091,-0.039543428,-0.041384723,-0.04638386,-0.03715979,-0.028914431,-0.03318264,-0.035258174,-0.035481315,-0.038623113,-0.026867723,-0.022918876,-0.014914335,-0.029166417,-0.035603598,-0.03448429,-0.035887253,-0.0274608,-0.028390123,-0.03142965,-0.025973678,-0.018128201,-0.028113004,-0.03439843,-0.02435761,-0.026575692,-0.03387188,-0.028413812,-0.014156137,-0.017873637,-0.03506084,-0.04104368,-0.036215138,-0.025031943,-0.014239394,-0.016468734,-0.025957549,-0.03131508,-0.033398543,-0.03691339,-0.040033877,-0.038198754,-0.0266572,-0.024399024,-0.026840758,-0.036906324,-0.029389733,-0.016540341,-0.023672063,-0.024703303,-0.020002024,-0.029705254,-0.029189,-0.02273452,-0.03482438,-0.032613784,-0.0196526,-0.02128774,-0.023220167,-0.031844422,-0.02031834,-0.037595004,-0.02421769,-0.02537841,-0.037680775,-0.024000617,-0.03717449,-0.040870767,-0.025860038,-0.032172214,-0.040864572,-0.03994025,-0.036550403,-0.025413409,-0.018852344,-0.023899166,-0.033462193,-0.039009318,-0.044815447,-0.05754905,-0.056169014,-0.048822533,-0.050420374,-0.04988684,-0.04328094,-0.041761253,-0.045116853,-0.052047238,-0.060067393,-0.04942149,-0.058704972,-0.057021417,-0.05451641,-0.051157158,-0.054556247,-0.05668677,-0.0632038,-0.065839,-0.0593054,-0.05683979,-0.06666348,-0.0613476,-0.063188046,-0.06603476,-0.06388687,-0.066707,-0.058415357,-0.057716165,-0.078967005,-0.09191944,-0.074038066,-0.05948104,-0.07112731,-0.064419046,-0.064804986,-0.048315626,-0.052506186,-0.06629162,-0.058816805,-0.056537487,-0.061017316,-0.0698328,-0.061949912,-0.056104723,-0.050286945,-0.03655642,-0.064711116,-0.07074492,-0.06067961,-0.053846512,-0.05871546,-0.06724773,-0.056404058,-0.059508532,-0.053171005,-0.05306317,-0.064022936,-0.068603925,-0.06617814,-0.0637628,-0.058785282,-0.06595099,-0.0678935,-0.05445263,-0.05621295,-0.06290523,-0.077250764,-0.080361396,-0.07556958,-0.0740696,-0.06708745,-0.050322473,-0.046545256,-0.061906464,-0.06740899,-0.059330754,-0.06203648,-0.07049126,-0.046553757,-0.058885984,-0.067977294,-0.055679534,-0.04816973,-0.048051044,-0.05773292,-0.05795435,-0.053982235,-0.062340293,-0.0796876,-0.09171399,-0.08394231,-0.07316787,-0.075754054,-0.07944656,-0.07758254,-0.05112133,-0.027975973,-0.016850239,-0.032327417,-0.04963793,-0.051475517,-0.060824454,-0.0665024,-0.063910775,-0.06583539,-0.06538265,-0.07465926,-0.07402686,-0.072060965,-0.05933672,-0.045172125,-0.053761017,-0.05859818,-0.06069907,-0.05226674,-0.04529094,-0.056401223,-0.06440932,-0.06516161,-0.06436802,-0.058293723,-0.06642986,-0.06732721,-0.055325378,-0.053779807,-0.051322043,-0.053786922,-0.047926936,-0.056458555,-0.058739763,-0.063637875,-0.076523036,-0.077935085,-0.06382745,-0.054658405,-0.048293993,-0.05370754,-0.058093652,-0.053144548,-0.05131966,-0.045584187,-0.04319232,-0.057142407,-0.060110882,-0.06162806,-0.062029973,-0.05095032,-0.046309125,-0.053762462,-0.067079976,-0.06030132,-0.05434182,-0.052088875,-0.035390962,-0.035580184,-0.031679776,-0.020644963,-0.020353189,-0.023448179,-0.015233957,-0.015191484,-0.031627655,-0.043242328,-0.027420636,-0.018664077,-0.029011877,-0.009449009,-0.003988673,-0.006366674,-0.013465717,-0.00293508,-0.009045417,-0.00942043,-0.015388703,-0.007079615,-0.011898904,-0.030876465,-0.02870891,-0.048454188,-0.038205653,-0.027708251,-0.038698394,-0.050229147,-0.05423553,-0.05473475,-0.047566112,-0.04211024,-0.039192114,-0.0451405,-0.050545882,-0.048759066,-0.05645585,-0.05371536,-0.04907876,-0.060261294,-0.045223616,-0.046613593,-0.04306663,-0.060575757,-0.064027265,-0.066627234,-0.060491465,-0.067688785,-0.07058215,-0.069161154,-0.063740365,-0.068330444,-0.07337464,-0.080785945,-0.07797472,-0.07687318,-0.08067848,-0.07649934,-0.06953373,-0.07108454,-0.066068664,-0.058150396,-0.06808122,-0.07407391,-0.060375903,-0.07368763,-0.059608296,-0.05784316,-0.06991324,-0.074561276,-0.05892639,-0.055926763,-0.046682145,-0.06681199,-0.06004917,-0.06169537,-0.06772602,-0.0748538,-0.06501812,-0.061085284,-0.06493673,-0.06786936,-0.07039641,-0.06140664,-0.058610506,-0.07358427,-0.070245445,-0.056387182,-0.07102759,-0.06277234,-0.059871797,-0.06449728,-0.075813964,-0.0745059,-0.0926466,-0.085376896,-0.09203802,-0.08801636,-0.08018309,-0.08366407,-0.07300664,-0.07856689,-0.08350252,-0.0687717,-0.0668906,-0.08004549,-0.09900621,-0.08237791,-0.07933438,-0.0811996,-0.08554482,-0.0845123,-0.08862565,-0.09518373,-0.09446161,-0.09612807,-0.08917435,-0.08377256,-0.09006807,-0.09045034,-0.09753676,-0.10065824,-0.09611799,-0.09471819,-0.09489454,-0.09663221,-0.10102475,-0.099179655,-0.105300084,-0.103293575,-0.0916079,-0.09279647,-0.09235036,-0.09262032,-0.09264408,-0.10225652,-0.104251705,-0.087122515,-0.098472506,-0.106359795,-0.11318924,-0.12644692,-0.13785248,-0.14054497,-0.12799725,-0.13497654,-0.13827911,-0.13044178,-0.12975344,-0.13104539,-0.13567826,-0.13266288,-0.12490103,-0.14031827,-0.16677994,-0.16159134,-0.1459297,-0.13786076,-0.14647067,-0.14772584,-0.13748863,-0.13441716,-0.13539994,-0.13914871,-0.14705253,-0.14852276,-0.14169215,-0.13934253,-0.14943121,-0.14965335,-0.14117804,-0.13060491,-0.13673598,-0.15937002,-0.14658237,-0.14347291,-0.14704241,-0.13308817,-0.14161552,-0.13768986,-0.14547727,-0.14766693,-0.14124787,-0.12967138,-0.11984143,-0.11894094,-0.10879721,-0.10672664,-0.12637648,-0.13959153,-0.14103842,-0.13637517,-0.13544579,-0.12917396,-0.12741734,-0.13434906,-0.12812378,-0.13805728,-0.13614012,-0.12783445,-0.12559782,-0.123615086,-0.13340077,-0.12586534,-0.12563235,-0.12083015,-0.116386145,-0.121352635,-0.11570318,-0.13683987,-0.13194773,-0.13043322,-0.12607154,-0.1290114,-0.13096796,-0.12716708,-0.12970553,-0.13731784,-0.12818177,-0.12091445,-0.11860018,-0.12409211,-0.12084387,-0.1335378,-0.12826452,-0.1186872,-0.120592594,-0.122770384,-0.13961235,-0.13283776,-0.12338501,-0.13059865,-0.14001885,-0.12648045,-0.12420854,-0.13808562,-0.15308662,-0.14463018,-0.13272242,-0.12759279,-0.13434744,-0.1284458,-0.12814534,-0.13873732,-0.13024953,-0.12796733,-0.1263533,-0.13852683,-0.14441352,-0.14008324,-0.13848624,-0.13374813,-0.13617665,-0.120760925,-0.12575485,-0.12375656,-0.12878169,-0.12945485,-0.135554,-0.12593594,-0.115460664,-0.123654015,-0.12564921,-0.11554815,-0.12803695,-0.13369608,-0.12910588,-0.13346685,-0.14079107,-0.13816635,-0.14487472,-0.13084273,-0.11996368,-0.14179334,-0.14821723,-0.13619737,-0.14083797,-0.14240226,-0.13962367,-0.14414477,-0.14346693,-0.16348578,-0.1681494,-0.14908,-0.13470416,-0.12445202,-0.12927328,-0.1446466,-0.13958828,-0.13548514,-0.14426388,-0.1474186,-0.1258137,-0.12645318,-0.13481629,-0.14401615,-0.13918753,-0.13386104,-0.14022991,-0.13841924,-0.12664008,-0.12702563,-0.141161,-0.15155983,-0.13947155,-0.11514625,-0.120587364,-0.1297596,-0.13464263,-0.14008285,-0.13282973,-0.14154771,-0.14568079,-0.13181363,-0.13380311,-0.1281543,-0.1235492,-0.132791,-0.14054608,-0.14394432,-0.12984091,-0.124212585,-0.12860228,-0.13538645,-0.14067632,-0.1455223,-0.12975276,-0.12767416,-0.13934155,-0.1287691,-0.123868994,-0.13064417,-0.1364517,-0.12998833,-0.14150737,-0.13791297,-0.14718339,-0.14316224,-0.13910824,-0.14608227,-0.143042,-0.136722,-0.13478585,-0.12583573,-0.12641056,-0.1356883,-0.12449442,-0.1301275,-0.1154797,-0.11685258,-0.12760292,-0.13089444,-0.12572289,-0.12966174,-0.12877068,-0.11518728,-0.10873606,-0.11417282,-0.11994866,-0.13109948,-0.11752609,-0.11355123,-0.1263946,-0.11812792,-0.106538974,-0.11839054,-0.11732409,-0.1173321,-0.12672816,-0.12674159,-0.11092915,-0.09836437,-0.09424972,-0.1081547,-0.10660726,-0.10879059,-0.10162518,-0.09909096,-0.11882122,-0.112034455,-0.099432975,-0.109596804,-0.11277681,-0.112257,-0.10723352,-0.10650462,-0.09869445,-0.09416139,-0.1045129,-0.11728017,-0.11804625,-0.114476144,-0.115222335,-0.11882415,-0.10970142,-0.11021039,-0.11156852,-0.12387419,-0.119608566,-0.103948936,-0.10808544,-0.122094244,-0.12540114,-0.12058131,-0.112370424,-0.104413934,-0.10467507,-0.11215567,-0.11623427,-0.11405734,-0.11599647,-0.11198266,-0.10602647,-0.113519154,-0.12146815,-0.1073628,-0.10170903,-0.10603626,-0.09645946,-0.11739364,-0.12779166,-0.12825805,-0.11691354,-0.109339915,-0.09964633,-0.10019319,-0.09991584,-0.099940695,-0.10462547,-0.10477228,-0.10774148,-0.12213626,-0.1256881,-0.11135182,-0.115836255,-0.11967741,-0.10866368,-0.09736694,-0.08470991,-0.07299277,-0.06411041,-0.08183109,-0.1026843,-0.10151383,-0.09847455,-0.10434463,-0.11105718,-0.10938987,-0.11493014,-0.11468339,-0.11672786,-0.12115803,-0.11580813,-0.10632812,-0.109459296,-0.112649165,-0.12974566,-0.13349193,-0.109159395,-0.09548822,-0.10228242,-0.10594318,-0.10084713,-0.10839442,-0.1059894,-0.1119738,-0.11830202,-0.117421664,-0.099760115,-0.09610556,-0.10024816,-0.1019551,-0.11305781,-0.120238006,-0.11863409,-0.104948245,-0.10130616,-0.11028738,-0.10485126,-0.11207687,-0.11292656,-0.11170101,-0.11996546,-0.114655964,-0.10488984,-0.1134419,-0.11193432,-0.11305244,-0.12006309,-0.114332676,-0.11562109,-0.114302285,-0.1159943,-0.09600579,-0.09681532,-0.11708115,-0.12743606,-0.11297751,-0.10949067,-0.10865114,-0.0970882,-0.092006914,-0.09591101,-0.11919042,-0.09026294,-0.08916345,-0.09578578,-0.094861984,-0.09512341,-0.10023028,-0.091073,-0.095627636,-0.10430884,-0.10200108,-0.107160546,-0.09162084,-0.08969346,-0.09368338,-0.09970273,-0.101511754,-0.11342445,-0.112543546,-0.10875251,-0.11164131,-0.10565936,-0.09711131,-0.10959279,-0.11319619,-0.106769204,-0.09221822,-0.101713054,-0.11188106,-0.1021412,-0.0997097,-0.11751012,-0.10828962,-0.098656565,-0.10053371,-0.103794456,-0.09423843,-0.09863729,-0.10691703,-0.10024946,-0.10060346,-0.10491058,-0.10442205,-0.09103235,-0.08281735,-0.09158434,-0.085643694,-0.07773002,-0.10382276,-0.11156025,-0.1042081,-0.107183985,-0.10656284,-0.09671057,-0.08406003,-0.08277623,-0.0929694,-0.09274775,-0.08755181,-0.08030792,-0.08460892,-0.085763335,-0.09113149,-0.08714289,-0.07768077,-0.06913698,-0.07147204,-0.07664016,-0.08129623,-0.07881785,-0.08555825,-0.0844134,-0.08244002,-0.056497794,-0.070668474,-0.07528587,-0.07040232,-0.06641323,-0.056336172,-0.05402897,-0.07426413,-0.079338014,-0.07345316,-0.065479964,-0.07299379,-0.057007384,-0.049243342,-0.04947119,-0.057557765,-0.07131903,-0.05120415,-0.04914258,-0.05380694,-0.061251976,-0.06271868,-0.061898228,-0.058428615,-0.06291638,-0.063049525,-0.05183558,-0.045463286,-0.049718656,-0.052384287,-0.050586466,-0.042563684,-0.051542107,-0.053705677,-0.045814157,-0.026239924,-0.026052749,-0.023713171,-0.03999362,-0.049612477,-0.053902157,-0.047588103,-0.05323224,-0.055341326,-0.045705862,-0.036072474,-0.038200114,-0.0498809,-0.049060103,-0.044195537,-0.045958832,-0.037612148,-0.024875438,-0.026139768,-0.031274382,-0.04330723,-0.05604486,-0.048612814,-0.0348002,-0.03530008,-0.032311745,-0.032235175,-0.04165202,-0.036024332,-0.023751892,-0.027829962,-0.031046713,-0.028945666,-0.03832467,-0.044643898,-0.04844402,-0.046457075,-0.045045264,-0.049587708,-0.04263772,-0.039009843,-0.044439346,-0.031503823,-0.036028393,-0.039119337,-0.031494554,-0.026111022,-0.025073647,-0.03650458,-0.040823016,-0.03488966,-0.024621675,-0.030158876,-0.02944763,-0.03180155,-0.038132165,-0.04086253,-0.029948818,-0.019200314,-0.02201964,-0.025796255,-0.024290137,-0.026020952,-0.022216825,-0.016003406,-0.019411936,-0.00560376,-0.018917779,-0.019652972,-0.012116921,-0.013974993,-0.029899511,-0.019818693,-0.02209316,-0.022327768,-0.025144292,-0.02839029,-0.013611455,-0.005741067,-0.013701513,-0.02217603,-0.014673763,-0.025613442,-0.03301096,-0.015226408,-0.021009583,-0.026048863,-0.024335613,-0.026049292,-0.032153368,-0.035689685,-0.03461881,-0.021960406,-0.00563169,-0.004708782,-0.022316769,-0.029227624,-0.016333304,0.003615821,0.010253173,0.008020072,-0.000100933,0.005017865,-0.008389156,-0.013238415,-0.011723991,-0.019610824,-0.020261511,-0.018411202,-0.006615577,-0.009047328,-0.028296467,-0.028480325,-0.010996028,-0.023167545,-0.02742509,-0.031221727,-0.024355305,-0.012773363,0.004921328,-0.001442741,-0.002327208,-0.002730774,0.004281274,0.006098314,-0.000340901,-0.013341211,-0.011256644,-0.002502939,-0.014387585,-0.03648934,-0.03021637,-0.021064607,-0.008226029,-0.023944698,-0.037343923,-0.030163825,-0.03475202,-0.027971258,-0.01745634,-0.013743359,-0.026169734,-0.035465747,-0.02389248,-0.034668427,-0.028279962,-0.03128213,-0.04590404,-0.048935242,-0.044088002,-0.048081428,-0.05043912,-0.049958732,-0.048777923,-0.03530751,-0.026387738,-0.02793133,-0.031333704,-0.028828034,-0.042396735,-0.048816923,-0.03701625,-0.024793023,-0.026990885,-0.026387494,-0.020696951,-0.030518219,-0.029004596,-0.025137587,-0.02702248,-0.04530977,-0.04800232,-0.028757088,-0.017572999,-0.0421981,-0.039766792,-0.029864797,-0.03108516,-0.039396573,-0.03288484,-0.0267958,-0.024594354,-0.02904958,-0.019752288,-0.019754268,-0.024490455,-0.039260164,-0.039666235,-0.04752615,-0.05597225,-0.052572887,-0.04204394,-0.044034787,-0.057292357,-0.048580404,-0.038164124,-0.04430214,-0.045315616,-0.044812668,-0.05533441,-0.05568316,-0.044530053,-0.04126163,-0.052551635,-0.06674356,-0.049303863,-0.044625066,-0.04457713,-0.040562276,-0.046561338,-0.039020065,-0.033801913,-0.04873655,-0.052184567,-0.061300214,-0.057334296,-0.04718413,-0.04445825,-0.044316307,-0.039646357,-0.035487354,-0.027318602,-0.04566413,-0.042769354,-0.04202428,-0.045642998,-0.041355755,-0.039289,-0.040710345,-0.038154375,-0.033234127,-0.049953002,-0.06053304,-0.03722598,-0.04307254,-0.03354785,-0.05472173,-0.056083784,-0.037930973,-0.04421745,-0.05361031,-0.055551216,-0.045417503,-0.046596978,-0.05668525,-0.053698298,-0.056378607,-0.04025267,-0.04090062,-0.036273878,-0.026129916,-0.024707343,-0.034039862,-0.035274316,-0.024738343,-0.024258493,-0.032497473,-0.023445286,-0.027928492,-0.036890786,-0.041220013,-0.038915455,-0.04504156,-0.03346155,-0.035870828,-0.020906484,-0.03504606,-0.04593612,-0.036911722,-0.022164393,-0.032104466,-0.034885712,-0.031801578,-0.032082565,-0.026011325,-0.033186276,-0.03925517,-0.0393731,-0.016061332,-0.005839932,-0.023998551,-0.020219017,-0.025007881,-0.006038323,-0.012340723,-0.015638288,-0.008321092,-0.014963129,-0.00940571,-0.01350446,-0.03787853,-0.021613343,-0.000417251,-0.015979234,-0.013831931,-0.002779792,-0.01034575,-0.007221467,0.012987159,0.005183945,-0.005389798,-0.012229772,-0.007711175,-0.014099313,-0.01656001,-0.006419281,-0.001007526,-1.74E-05,-0.005089336,0.00469701,0.008916581,-0.00054586,0.009843619,0.00327275,0.011380515,0.019514006,0.009372384,0.015387547,0.013856432,0.008046778,0.004010005,0.005935396,0.003486127,-0.004018574,0.001800311,0.008392129,0.010541555,0.00436736,-0.010357332,-0.001662187,-0.000429617,0.000623022,0.003912858,0.018283864,0.015597448,0.007544578,-0.003661155,0.000210961,0.004073757,0.00961169,0.011303881,-0.00443312,0.000277045,0.02325526,0.020007765,0.019800661,0.02322878,0.005860577,0.020693118,0.010341697,0.00132982,0.003206329,0.013955122,0.005932323,0.018809026,0.017698437,0.003900162,-0.006145785,0.002425532,0.004259095,0.006228575,0.000124422,0.022714946,0.019132277,0.004842117,0.00091769,0.01727655,0.020633377,0.013286976,0.010121409,0.007450989,0.003902655,0.01073975,0.0208339,0.02642846,0.01931356,0.010252999,0.005684518,0.004842176,0.014823787,0.020242283,0.029876834,0.043074396,0.046100162,0.031905405,0.01468946,0.0159636,0.026306547,0.016909294,0.009304268,0.012642314,0.016031582,0.022632705,0.028563436,0.033494532,0.027467458,0.016701024,0.02387968,0.024287077,0.020717354,0.026711391,0.023443248,0.039903224,0.038481656,0.03531128,0.031903435,0.032884344,0.044841852,0.038093153,0.02677083,0.027606739,0.027640007,0.014472033,0.022917422,0.03138818,0.039768487,0.02880233,0.024017828,0.031002108,0.029266153,0.030633304,0.029341994,0.0351832,0.033829186,0.02943707,0.032148242,0.04336425,0.027145937,0.005680195,0.001871468,0.00750859,0.014868641,0.014429683,0.028628267,0.022835763,0.02138919,0.03339427,0.01862993,0.015577093,0.017037721,0.030850958,0.024805255,0.02222697,0.028745739,0.032190807,0.020741949,0.013728391,0.015372802,0.008665528,0.004194683,0.008026141,0.010491542,0.014093027,0.015875472,0.011577775,0.002237373,0.017554995,0.002384944,-0.000124439,0.0062637,0.00623374,0.012588164,-0.006130289,-0.001505715,-0.006048986,0.000400338,0.012991118,0.00403408,0.004722079,0.000307984,0.00688171,0.006634559,0.01748338,0.016038876,0.001388906,-0.008383068,0.01158481,0.014751366,0.004959686,0.003203056,-0.000671799,0.000236595,0.000194411,0.005285815,0.004758717,0.006855378,0.021738892,0.017349837,0.007062697,0.018503759,0.032296,0.028686281,0.0396205,0.033584006,0.018667808,0.007902766,0.011367546,0.00519709,0.02836422,0.026734484,0.02813196,0.029997874,0.026367277,0.028562665,0.023958124,0.013425414,0.00927227,0.01504144,0.019408539,0.00509811,0.011854187,0.01139411,0.02782492,0.02970838,0.01328678,0.002255191,0.017419858,0.019832358,0.016013991,0.019948376,0.023216983,0.018518476,0.004567931,0.005751741,0.014041964,0.021190643,0.022700844,0.026268948,0.024519488,0.03279004,0.020588461,0.013508134,0.020845631,0.03020315,0.02991327,0.030008063,0.030113311,0.025346285,0.025173534,0.023291618,0.01905449,0.020723825,0.019056622,0.015552188,0.012797216,0.013129714,0.037388943,0.0220034,0.02101047,0.032094076,0.026464676,0.021368988,0.019263467,0.014370181,0.019946527,0.03330574,0.024115076,0.026479127,0.02363159,0.03643958,0.034779858,0.022197325,0.013815213,0.011213217,0.007703622,0.01957263,0.025576102,0.030633342,0.0376122,0.022568837,0.028760476,0.030403981,0.016061317,0.016185228,0.028218685,0.030493077,0.022815468,0.019167084,0.032308433,0.03570754,0.044664692,0.04074112,0.044297725,0.033471797,0.04079943,0.05266555,0.041364994,0.040725004,0.06238831,0.06306272,0.059411757,0.060275868,0.055659078,0.06020321,0.058757316,0.05082451,0.05690617,0.06624963,0.0682595,0.05565536,0.04648131,0.041204605,0.052184325,0.045858372,0.043976367,0.048211377,0.053417828,0.06524259,0.06270566,0.05402784,0.057227876,0.068401754,0.061053537,0.060798418,0.06413388,0.058574457,0.06093871,0.063703485,0.06579513,0.06559425,0.07253828,0.06098339,0.05228871,0.05887264,0.060997695,0.04298742,0.06102284,0.082699396,0.07007654,0.05936061,0.062210668,0.0699208,0.060655862,0.06631083,0.05803387,0.0405233,0.058630344,0.054578003,0.05770294,0.065070584,0.06807614,0.06684248,0.07265624,0.05824913,0.04851151,0.05100172,0.04909137,0.059568476,0.053257544,0.04056477,0.03490554,0.059803516,0.07955066,0.06887061,0.07247607,0.075207,0.07514847,0.070115715,0.06410596,0.057607632,0.054565787,0.05524851,0.050228696,0.044267755,0.046013925,0.0415379,0.04013236,0.039446086,0.054765653,0.061116736,0.04414351,0.049360737,0.059123006,0.059876822,0.062469553,0.05838838,0.042888086,0.051616218,0.04796948,0.053616818,0.053693946,0.060259584,0.057607636,0.04817516,0.062486496,0.07059412,0.07660131,0.069122195,0.065677404,0.06187884,0.048197605,0.04397329,0.055058014,0.058878604,0.045214586,0.038276065,0.051362183,0.05630723,0.04775262,0.045394372,0.044451438,0.045576837,0.053023394,0.057489134,0.05776413,0.054838907,0.054660164,0.06444527,0.06435225,0.05777374,0.054005478,0.05920881,0.06417416,0.06019396,0.059652958,0.060618285,0.056040898,0.050361816,0.049678817,0.050438475,0.049280718,0.05412863,0.042379707,0.049137805,0.042809304,0.03713008,0.033893947,0.04092329,0.050480902,0.057079177,0.04646621,0.031253517,0.025965692,0.054182608,0.0563239,0.048847295,0.050326847,0.05431866,0.049313698,0.051781565,0.04067429,0.040445305,0.055807874,0.048836246,0.049040955,0.026523285,0.018486088,0.030209476,0.040708285,0.038278498,0.03161295,0.029734546,0.025399547,0.01934654,0.020565921,0.019277176,0.024066502,0.020588392,0.014322436,0.026556779,0.0368879,0.030617988,0.025368243,0.025136577,0.023257684,0.019326204,0.017067157,0.013767335,0.016082188,0.014693333,0.028314285,0.01890573,0.010332308,0.031805776,0.028128544,0.034554213,0.027281081,0.020307736,0.011410847,0.00103007,0.018269174,0.0195368,0.0208758,0.024768185,0.02418213,0.015543821,0.019045379,0.020041969,0.026834046,0.027225798,0.015107855,0.019087957,0.02439767,0.025927674,0.021158546,0.013498956,0.01593603,0.018738357,0.027365603,0.029209046,0.031664662,0.018233124,0.005844152,0.015240304,0.015237466,0.012308465,0.009268275,0.00605041,0.004228943,0.006675178,0.015521648,0.022246577,-0.000418307,-0.008343215,0.002637255,0.006145082,-0.002968721,0.003654323,0.004099927,-0.00842026,-0.012051182,-0.016739717,-0.008790872,-0.012072911,-0.004365594,-0.005168334,-0.00809272,0.005333835,-0.001250979,0.002582383,0.005178081,0.004984365,0.005385246,0.016031012,0.01256455,0.009788858,0.009867907,0.01036643,0.009265988,0.012380557,0.014917379,0.018953428,0.002666432,0.011218956,0.02224966,0.014137411,0.001849426,-0.000448525,0.006425982,0.010763017,0.006777874,0.008078499,0.015041838,0.016136983,0.017635997,0.007012177,0.015812356,0.009035742,0.012084823,0.014468739,0.015846888,0.01398233,0.01187491,0.007832016,0.014327087,0.008288091,0.008565089,0.004923093,-0.005020636,-0.007116469,-0.008018565,-0.003828304,0.002608257,0.002211172,0.001922925,-0.007726077,0.004124972,-0.000425489,0.002931617,0.007466172,-0.004339083,-0.008341149,-0.006187655,0.008547628,0.013694306,0.008707538,0.014276465,0.019583583,0.026216896,0.02200931,0.022885667,0.022067858,0.014537416,0.01649113,0.029046109,0.024059966,0.022501234,0.025690522,0.013384482,0.017574621,0.022463033,0.026483234,0.018944912,0.029889764,0.04691977,0.042085387,0.03241794,0.029081117,0.030053286,0.02286618,0.031374585,0.039025873,0.036444675,0.03360416,0.048215173,0.04819438,0.033654872,0.040438782,0.040197086,0.047543496,0.052780956,0.05587538,0.0501075,0.048814073,0.036162537,0.037960332,0.040631168,0.034855094,0.03732293,0.0544021,0.05155684,0.0501388,0.040440537,0.035144515,0.042702835,0.047068764,0.05846983,0.055466402,0.05643745,0.06804859,0.0706064,0.06276349,0.0632264,0.0654977,0.045733385,0.030786822,0.029638357,0.03936442,0.039487336,0.032589633,0.029241731,0.03391577,0.035340585,0.03521866,0.043188654,0.042209797,0.042679995,0.05074794,0.04167475,0.02650346,0.027511477,0.0309975,0.029086739,0.031634472,0.03493277,0.037162047,0.047995858,0.046261042,0.037597213,0.03718914,0.038295075,0.029955134,0.047874864,0.039031148,0.034711517,0.03255274,0.032167703,0.04563429,0.037574496,0.03604527,0.03288884,0.04758479,0.052849058,0.038119186,0.05771887,0.036453273,0.028546363,0.035862215,0.04462004,0.037384234,0.03463618,0.035289597,0.034365762,0.030753559,0.03610351,0.031853687,0.029430652,0.030763358,0.034153778,0.02906615,0.031161223,0.022207558,0.023661735,0.02635546,0.03187197,0.036148496,0.03085016,0.020952772,0.019941598,0.0282324,0.029399509,0.034194876,0.04336452,0.041159153,0.0368763,0.03833144,0.033151716,0.024686895,0.030509088,0.030198168,0.025132483,0.017579751,0.03139765,0.032076776,0.026172718,0.029321896,0.015496426,0.038057562,0.03957239,0.03434663,0.0331145,0.02531296,0.016189564,0.014904199,0.023027414,0.025141208,0.021694614,0.01915516,0.026977492,0.030910278,0.037953224,0.018654693,0.01126026,0.029235007,0.018337071,0.036237855,0.030228643,0.008450152,0.002579232,0.019163685,0.016715828,0.015086834,0.013853617,0.013569473,0.034446858,0.032688178,0.015511007,0.00708351,0.013636873,0.010162832,0.006513888,0.018181782,0.011786282,0.00272966,0.01031124,0.012713192,0.009378192,0.013751872,-0.006658027,-0.000301501,0.00149238,-0.011798315,-0.002396093,0.014296069,0.015422388,0.001097002,0.015246217,0.016121944,0.004070967,0.003923816,-0.001315172,0.000879117,-0.009119006,-0.005747636,-0.00985212,7.22E-05,-0.00793883,-0.005628354,0.006725258,-0.000437819,-0.015437616,-0.007258653,0.012775922,-0.001362384,-0.014153261,-0.007374471,0.009467718,0.013910553,0.002853926,-0.015780678,-0.02038437,-0.016759071,-0.013292525,-0.006047873,-0.011940558,-0.016083857,-0.013911016,-0.012333171,-0.011222546,0.001404342,-0.002940263,-0.006029656,-0.003389463,0.003851483,-0.001612496,-0.006937745,0.003714956,-0.004369869,-0.003860226,3.17E-05,0.000891309,-0.007892844,-0.01014524,-0.011331958,-0.013556523,-0.009389189,-0.006824725,-0.003944684,-0.000518045,-0.008325076,-0.004623193,-0.001793604,-0.015902516,-0.019734235,-0.018829634,-0.013432006,-0.016572494,0.000389413,0.009382266,0.002981197,-0.003240689,-0.005571072,-0.004197728,-0.000956508,-0.005590676,-0.006432823,-0.01894644,-0.001960289,0.000132983,-0.00792946,-0.010250052,-0.006641942,-0.00404713,-0.012611009,-0.0112716,-0.0033758,-0.009335713,-0.014395382,-0.016242733,-0.019300219,-0.012440277,-0.027456697,-0.03380522,-0.019978238,-0.018029932,-0.016682534,-0.021744521,-0.013425391,-0.006931236,-0.017542314,-0.02286313,-0.025911188,-0.015591577,-0.020669628,-0.017898489,-0.014115682,-0.022049727,-0.03558037,-0.03336058,-0.029030278,-0.020299086,-0.02466298,-0.015156758,-0.01596646,-0.001641321,-0.004430008,-0.02215973,-0.00995637,-0.021947546,-0.025307214,-0.022286026,-0.01953408,-0.019006593,-0.006530346,-0.023947913,-0.009969063,-0.003888164,-0.014904055,-0.019028641,-0.006065028,-0.008040516,-0.010484763,-0.009782183,-0.023485294,-0.0248413,0.000299077,-0.008802376,-0.009678136,-0.022996314,-0.009330294,0.003534168,-0.016071245,-0.008786025,-0.0182728,-0.015436089,-0.009552544,-0.009604557,-0.015410302,-0.01298931,-0.01241719,-0.012109004,-0.016498215,-0.025519239,-0.012949928,-0.008943385,-0.00078629,-0.003736751,-0.005010992,0.006334364,0.002160354,0.000539941,-0.004496831,0.013089036,0.00245711,-0.002670041,0.007749111,-0.003391916,-0.014675587,-0.019740438,-0.013560696,-0.018377556,-0.020385642,-0.023903726,-0.0268795,-0.028301174,-0.024231954,-0.028389815,-0.04446336,-0.037877,-0.03782499,-0.034435842,-0.032611527,-0.03907954,-0.02667703,-0.04411642,-0.045223694,-0.034466743,-0.028718168,-0.04061211,-0.024708997,-0.02929727,-0.029253613,-0.03075238,-0.02332131,-0.029192764,-0.038758025,-0.03691428,-0.03403664,-0.035141986,-0.027837032,-0.036263783,-0.04439953,-0.036283042,-0.034495868,-0.03395971,-0.028246174,-0.03468669,-0.043365378,-0.040002592,-0.032085262,-0.029407298,-0.040213563,-0.052473783,-0.051848188,-0.043584842,-0.035998527,-0.03531294,-0.038692627,-0.035410553,-0.035743244,-0.044283155,-0.04450691,-0.041456766,-0.044452377,-0.044317055,-0.03743083,-0.049242895,-0.03579735,-0.03610588,-0.040135305,-0.042096414,-0.05301784,-0.046992853,-0.043424364,-0.04799095,-0.049455687,-0.054228954,-0.05872771,-0.050570816,-0.05832625,-0.07205991,-0.07245332,-0.054611526,-0.04607908,-0.05869409,-0.057440683,-0.050669186,-0.045952514,-0.049054656,-0.056297943,-0.07903453,-0.07906157,-0.08566052,-0.089499705,-0.07974877,-0.06487352,-0.062482752,-0.067289606,-0.084608294,-0.07799823,-0.068804264,-0.076780416,-0.09091469,-0.08232287,-0.09163187,-0.084696986,-0.067945324,-0.08255613,-0.12167721,-0.10766978,-0.098827906,-0.10376905,-0.101213016,-0.09313278,-0.09769758,-0.086554,-0.10291838,-0.117490865,-0.103924505,-0.08283458,-0.101297505,-0.10118645,-0.11346037,-0.108816,-0.10529801,-0.10144894,-0.10702735,-0.102137685,-0.099390805,-0.1078317,-0.09366843,-0.07823451,-0.10423091,-0.10328337,-0.10321182,-0.11195366,-0.105511256,-0.09624918,-0.10059339,-0.10604989,-0.10400335,-0.109227404,-0.105891235,-0.11000589,-0.110890225,-0.1214372,-0.1259508,-0.12414367,-0.12026252,-0.11861402,-0.11124463,-0.11025072,-0.104441434,-0.102630764,-0.11723732,-0.11344655,-0.116443835,-0.10473228,-0.106219076,-0.11288671,-0.12536378,-0.12009193,-0.12966464,-0.122977935,-0.122063,-0.12507132,-0.12861378,-0.12670437,-0.14079997,-0.13687733,-0.12135432,-0.105619535,-0.1062278,-0.12040373,-0.11942055,-0.124911994,-0.13270873,-0.11756361,-0.108408324,-0.12243412,-0.128481,-0.1298072,-0.13112414,-0.13266028,-0.12431752,-0.12471212,-0.13207948,-0.13656703,-0.13214026,-0.125572,-0.13392818,-0.13818637,-0.13296372,-0.13897319,-0.15008993,-0.14051563,-0.13743483,-0.1499113,-0.15569045,-0.14281148,-0.1365103,-0.14095305,-0.14051807,-0.15538536,-0.14590524,-0.13379279,-0.1256863,-0.11981531,-0.12272338,-0.1374253,-0.13096935,-0.13031176,-0.13336985,-0.12599185,-0.13054213,-0.1316098,-0.14055267,-0.12536575,-0.13313812,-0.13708071,-0.1280151,-0.13434933,-0.14423579,-0.14474477,-0.14831118,-0.15713352,-0.1501495,-0.15040667,-0.1494371,-0.15181707,-0.15639032,-0.14709076,-0.14037678,-0.14482473,-0.1470456,-0.14821772,-0.14355673,-0.14612493,-0.14388081,-0.1472334,-0.15290308,-0.15281448,-0.15159033,-0.15542036,-0.15940802,-0.13554014,-0.14258562,-0.15074198,-0.15398797,-0.14947383,-0.1500403,-0.15343963,-0.1469954,-0.1434016,-0.14811118,-0.14748058,-0.14095947,-0.13934696,-0.14134142,-0.14628889,-0.15606615,-0.16456513,-0.1604838,-0.15403154,-0.15629613,-0.15106189,-0.15391728,-0.15460287,-0.15053625,-0.14652656,-0.13605328,-0.13448654,-0.14927946,-0.1543256,-0.13894553,-0.12086171,-0.106358245,-0.10459882,-0.112354204,-0.12209953,-0.1286504,-0.12652095,-0.13324249,-0.12965693,-0.123690516,-0.12806258,-0.13397484,-0.13539653,-0.13433315,-0.127028,-0.12950075,-0.14083062,-0.13404062,-0.124409355,-0.11913243,-0.13794678,-0.14025156,-0.12225264,-0.118816294,-0.13229434,-0.13846703,-0.13997415,-0.13620847,-0.1252618,-0.10798314,-0.1128886,-0.122814156,-0.11681916,-0.12109032,-0.13224612,-0.12617421,-0.12178341,-0.1232104,-0.13328876,-0.13034502,-0.12677862,-0.13126601,-0.12035025,-0.119571015,-0.1110995,-0.10241971,-0.12051536,-0.13040328,-0.11925678,-0.1278413,-0.11741362,-0.12191268,-0.13109148,-0.1326568,-0.11652888,-0.12785596,-0.12875824,-0.14146325,-0.11989948,-0.09077056,-0.11672581,-0.1272542,-0.1308316,-0.13112804,-0.12987046,-0.10702408,-0.11987893,-0.12736039,-0.1334952,-0.13034394,-0.12437054,-0.12818629,-0.14013606,-0.13270672,-0.1324136,-0.13278641,-0.12594326,-0.11941423,-0.11734837,-0.13332792,-0.120297536,-0.11694172,-0.13094085,-0.12677029,-0.11175133,-0.10993193,-0.10998159,-0.11016605,-0.11614331,-0.12056653,-0.12120333,-0.13752502,-0.122406304,-0.10670993,-0.10901525,-0.1163974,-0.11394054,-0.12449339,-0.10623961,-0.103416465,-0.11120968,-0.112861,-0.12037671,-0.11998962,-0.118238784,-0.11481494,-0.10490844,-0.09333172,-0.10908907,-0.11531202,-0.12774135,-0.12297881,-0.114226036,-0.11013348,-0.10965133,-0.112644136,-0.11591313,-0.11003344,-0.10930224,-0.10507444,-0.115133256,-0.10709965,-0.104698434,-0.11798972,-0.12296022,-0.10965398,-0.11125206,-0.11300137,-0.11629307,-0.09489868,-0.10100764,-0.112458065,-0.09987944,-0.09348216,-0.092476666,-0.10676152,-0.117658,-0.12081898,-0.10622883,-0.09206355,-0.09118557,-0.110492185,-0.12100852,-0.11327663,-0.11837263,-0.116900705,-0.115076296,-0.10539019,-0.10687906,-0.11617876,-0.114570975,-0.11197658,-0.10434238,-0.106459334,-0.11027963,-0.10985469,-0.11021769,-0.10520856,-0.10582587,-0.11079912,-0.10939567,-0.11067175,-0.10037328,-0.100872844,-0.10577803,-0.104223356,-0.10911055,-0.11396506,-0.10539058,-0.11165383,-0.10406832,-0.098465025,-0.11501803,-0.124965616,-0.11618802,-0.10353845,-0.09890173,-0.10098277,-0.10527734,-0.111853145,-0.1055351,-0.11260907,-0.115525454,-0.11507979,-0.11345104,-0.106812604,-0.10401065,-0.11500966,-0.10726536,-0.11015874,-0.10564009,-0.09066961,-0.111576915,-0.10772138,-0.11412028,-0.10924971,-0.10035299,-0.10508841,-0.114004396,-0.09396386,-0.102708936,-0.10062793,-0.10599253,-0.11244458,-0.09628964,-0.09732545,-0.10166775,-0.08892608,-0.094555356,-0.101089284,-0.085991174,-0.10295795,-0.105011694,-0.10602563,-0.10969276,-0.098182015,-0.09440283,-0.10392885,-0.10612411,-0.10103865,-0.093406975,-0.09944479,-0.09932805,-0.084028184,-0.09699343,-0.105977304,-0.10828121,-0.10973544,-0.087945685,-0.09347991,-0.09182976,-0.09308579,-0.10021533,-0.09332094,-0.090927385,-0.10107557,-0.10663577,-0.09422394,-0.09226503,-0.10078432,-0.10014565,-0.09307497,-0.08427152,-0.09897532,-0.11160963,-0.10476661,-0.09132122,-0.089705706,-0.084129356,-0.088747315,-0.09667851,-0.09368303,-0.10084057,-0.09791832,-0.09695176,-0.10050646,-0.09694903,-0.08368167,-0.07158974,-0.08249618,-0.0884214,-0.086603664,-0.0851134,-0.08796495,-0.07191959,-0.07972981,-0.078875735,-0.08602083,-0.08203219,-0.07500519,-0.0721399,-0.06958158,-0.069695115,-0.058219735,-0.045370817,-0.038759533,-0.044030968,-0.041462302,-0.050724298,-0.06748244,-0.07157938,-0.05856343,-0.066004135,-0.05711019,-0.058022637,-0.056807306,-0.058528196,-0.05947262,-0.044627205,-0.053399917,-0.05241548,-0.048916064,-0.05602795,-0.06362958,-0.05153635,-0.05247161,-0.056290846,-0.04444297,-0.04214925,-0.050512224,-0.056139845,-0.07974506,-0.0560019,-0.05106792,-0.05258425,-0.04006889,-0.040767603,-0.039421707,-0.0529917,-0.050723564,-0.044544414,-0.038282566,-0.028846461,-0.03264132,-0.051914025,-0.060046434,-0.042070936,-0.03112622,-0.028691895,-0.0333294,-0.029602155,-0.023793051,-0.020714203,-0.015603961,-0.027867462,-0.020195408,-0.021346228,-0.01803647,-0.030604668,-0.035153974,-0.02037024,-0.019762825,-0.025164487,-0.016355593,-0.004083812,-0.004334666,-0.016220775,-0.012091444,-0.003119194,0.002232384,0.000796311,-0.007600572,0.001364829,-0.007932171,-0.007418275,-0.005029349,-0.004754021,-0.004911023,0.00671004,0.011305436,0.01722494,0.002971773,-0.000559708,0.006006576,0.002505317,0.001984265,0.006529281,-0.005365227,-0.002721661,0.006106534,0.004044076,0.009335485,0.00518942,0.006790117,0.01635986,0.014346855,0.01221118,-9.72E-05,-0.000289851,-0.006500619,-0.003462176,-0.009852209,-0.009349464,-0.010531257,0.000251975,0.005172177,0.005519926,0.003646993,-0.004471457,-0.006250618,0.000888657,0.009251602,0.01534772,0.019225264,0.013018655,0.008571878,0.014987461,0.000909908,0.020468941,0.03201779,0.013373072,0.020373046,0.014346738,0.010765126,0.018468287,0.029462824,0.029500939,0.026379073,0.022905001,0.020957438,0.014022135,0.012130572,0.025583018,0.016203975,-0.007321207,-0.015018369,0.003328837,0.003555039,-0.007846548,0.009025374,0.009422796,0.010600115,0.009381406,0.010709826,0.008991031,0.01340752,0.014994537,0.007110354,0.006828408,0.003779261,0.02163364,0.011014742,0.019199079,0.006942498,0.002630957,0.012515197,0.004700461,0.010552038,0.015052348,0.023751946,0.019415187,0.013747473,0.0200896,0.027328324,0.045500476,0.05080041,0.04608709,0.04892851,0.03692497,0.014187059,0.024136882,0.031720422,0.023882816,0.022661816,0.03882197,0.03943235,0.040816642,0.034310963,0.031169223,0.03546511,0.032978807,0.02163614,0.01987453,0.01949176,0.02325203,0.03449871,0.031465776,0.020284563,0.020949062,0.025457846,0.026856467,0.035043426,0.02987923,0.030857317,0.026238248,0.018179577,0.024717152,0.024174003,0.014683128,0.016181882,0.02597786,0.03466292,0.0349749,0.03497722,0.03525454,0.03248615,0.02882588,0.035594143,0.033332933,0.030236527,0.028986784,0.03791243,0.04022898,0.040785015,0.03482703,0.020204691,0.016922602,0.022938265,0.032623235,0.034358077,0.035573784,0.037659954,0.04173592,0.03806241,0.042844128,0.029765107,0.031139838,0.045849863,0.048624657,0.035979386,0.04056007,0.046586566,0.03435502,0.02620511,0.037404917,0.0305297,0.031143077,0.03220076,0.04142257,0.05096614,0.034818932,0.035154402,0.048725408,0.048723005,0.038240485,0.041297708,0.035697017,0.03923827,0.047376905,0.04613977,0.04110949,0.046746027,0.035568006,0.052139815,0.0549244,0.053066354,0.04509985,0.049502485,0.044885263,0.043418568,0.042714175,0.06456541,0.05335169,0.03731417,0.052799188,0.04336816,0.03928085,0.0404738,0.046092678,0.049405385,0.040804364,0.040312022,0.044028807,0.05234389,0.05279947,0.051727854,0.060082585,0.041647583,0.03978768,0.03736198,0.025021551,0.025824504,0.029047873,0.048106182,0.039284844,0.054514628,0.07107711,0.073983945,0.07519444,0.0755996,0.06972713,0.06008783,0.055789407,0.060521256,0.05757129,0.05729203,0.06068019,0.056057967,0.057427,0.053570244,0.06945324,0.054664295,0.065618314,0.06276811,0.061210103,0.054037277,0.04566436,0.057549186,0.06258089,0.052635394,0.048815772,0.060692407,0.059708588,0.07164825,0.06585156,0.056587826,0.051034287,0.0541886,0.06139058,0.05678602,0.0600788,0.06692444,0.062984414,0.06334756,0.07812343,0.080238424,0.079732075,0.07637658,0.07794416,0.06864891,0.07114926,0.065587185,0.06552896,0.07622916,0.08062806,0.07947367,0.08058986,0.07505324,0.08130368,0.07559323,0.0710171,0.08350656,0.09438761,0.10118182,0.09603912,0.09012954,0.10806761,0.113620035,0.09928521,0.092209205,0.09026347,0.08888524,0.110207595,0.12312108,0.106914155,0.11670262,0.12104076,0.105567634,0.10684068,0.11611334,0.1149467,0.10804378,0.1040458,0.11036531,0.103209086,0.106336124,0.10692408,0.12106721,0.10539132,0.10420711,0.11061854,0.110212184,0.104931004,0.10615728,0.11157821,0.11700906,0.10617127,0.10618301,0.11405146,0.11848051,0.113761365,0.116549306,0.11601227,0.112225085,0.13442214,0.1241228,0.1274313,0.10844209,0.11590216,0.1277808,0.115861,0.11113495,0.12755421,0.13063438,0.12137787,0.12278897,0.12591656,0.102146424,0.099436834,0.10997549,0.11389786,0.10108071,0.10120486,0.12052471,0.110255055,0.103826195,0.10910101,0.1062455,0.11544554,0.11411357,0.11874255,0.112942725,0.10954705,0.120000005,0.10514115,0.1090848,0.10908509,0.120478325,0.11659148,0.10344929,0.10779083,0.11458759,0.10555059,0.10671485,0.11628181,0.11625631,0.12563421,0.11500188,0.121900134,0.11416834,0.11938732,0.14087868,0.13462147,0.14720508,0.1389927,0.123541154,0.115125455,0.120412126,0.12995654,0.121662125,0.12478627,0.1354796,0.13414757,0.12897822,0.11696739,0.12762143,0.12594046,0.14303146,0.13847831,0.12854312,0.12926582,0.11222553,0.12325289,0.13135864,0.12849148,0.13581312,0.14470614,0.13622253,0.13358967,0.1294537,0.13245511,0.13949855,0.13963453,0.1282872,0.12644579,0.13080683,0.13295421,0.13968375,0.12479954,0.13818586,0.11631778,0.13479064,0.13077837,0.11549202,0.12829086,0.13252147,0.13596743,0.1297982,0.12446167,0.1269633,0.13240995,0.14339742,0.12742265,0.13090555,0.14272255,0.13141224,0.11592546,0.12396505,0.1253109,0.12494726,0.12474185,0.12862411,0.13484116,0.12879021,0.12431167,0.12740056,0.13793387,0.13989949,0.11763104,0.12307706,0.111112274,0.1286605,0.13641986,0.12332597,0.1273103,0.13287954,0.13889362,0.1281413,0.11896172,0.108251415,0.12832133,0.13026105,0.11601634,0.11663846,0.12586866,0.12937728,0.13753842,0.12419572,0.12617415,0.1227364,0.11701308,0.117456384,0.13050243,0.12867513,0.123152286,0.11914896,0.117423825,0.11293217,0.11270077,0.12114188,0.114731215,0.10778275,0.12151148,0.13437955,0.12652573,0.11550206,0.11550617,0.118777625,0.12106348,0.11883612,0.12148948,0.11497349,0.11633637,0.118435636,0.12507172,0.12593691,0.110951684,0.1141504,0.11639152,0.12020524,0.12025954,0.11635106,0.11429293,0.11680115,0.1281039,0.13001308,0.12720476,0.113706924,0.10765867,0.12448286,0.13632594,0.1409282,0.13982478,0.14504854,0.13693161,0.13517326,0.13451265,0.14010972,0.1320661,0.1282987,0.14939979,0.14194869,0.13094363,0.12275587,0.13314061,0.1458482,0.12674336,0.11653683,0.12552528,0.13255748,0.13555767,0.1313362,0.124876685,0.11876416,0.115817815,0.12204131,0.11453724,0.11782458,0.13784064,0.12088416,0.122556254,0.13262425,0.13159634,0.11515683,0.10702825,0.1223208,0.12562749,0.12403182,0.12154091,0.12219779,0.11407526,0.13730788,0.13968639,0.13500708,0.12477352,0.12399506,0.13918974,0.1441552,0.13953166,0.13221094,0.1319052,0.13990377,0.13937958,0.14121589,0.13570878,0.12926823,0.1266783,0.120879225,0.14155391,0.13822637,0.14624603,0.1510479,0.14027974,0.13440588,0.13669084,0.1433155,0.145548,0.14429547,0.14018051,0.13951574,0.14282502,0.14568914,0.14472832,0.15098089,0.14768015,0.14444739,0.14853121,0.15518035,0.1481138,0.1465574,0.15130372,0.14236407,0.13952567,0.15808994,0.15710062,0.15595028,0.14689665,0.14082761,0.14433739,0.14559749,0.12866361,0.13608234,0.13522896,0.12749672,0.13910422,0.124599576,0.12218663,0.14128332,0.15246801,0.14933586,0.15863371,0.144846,0.16435017,0.16380146,0.15840077,0.1535187,0.15649758,0.14051972,0.15242419,0.15271652,0.14983182,0.149945,0.14118527,0.1401837,0.14430657,0.12515818,0.13731372,0.14821771,0.14109099,0.13678926,0.13833083,0.13635106,0.13522172,0.1397452,0.14186418,0.14761396,0.15491879,0.14097933,0.14681649,0.14681503,0.13619387,0.13106981,0.13009523,0.1284326,0.12793809,0.1371704,0.13327031,0.15413539,0.14840929,0.146384,0.15132104,0.14556107,0.14565387,0.1550137,0.14563136,0.13850601,0.1443796,0.14519933,0.1504647,0.15048252,0.16025665,0.14845112,0.13996023,0.14520754,0.14534172,0.14212841,0.1395217,0.14011915,0.14681408,0.14695844,0.13762926,0.14820634,0.15498374,0.14108354,0.13149896,0.14552352,0.1437858,0.1373563,0.12678657,0.137946,0.14049979,0.13313162,0.1406644,0.13876426,0.13313046,0.12873091,0.13455245,0.13406222,0.1256423,0.13186462,0.13906696,0.12965696,0.12305296,0.1388186,0.13529281,0.12757735,0.11955447,0.13924074,0.1316871,0.12960353,0.14312878,0.13148905,0.1207335,0.13353269,0.14382802,0.12901618,0.13490568,0.14337268,0.15184939,0.13589227,0.12275368,0.13281333,0.144723,0.13854957,0.13479574,0.13509163,0.13186668,0.12802193,0.11511165,0.11651939,0.13841505,0.14295502,0.13410473,0.13593929,0.13278392,0.12928173,0.13373828,0.12749107,0.13280165,0.12367684,0.12779862,0.13754994,0.13648653,0.12120646,0.1155441,0.11169745,0.1099472,0.118261434,0.1226282,0.121069066,0.11391857,0.11533516,0.114956856,0.10823617,0.10674232,0.110413074,0.110511966,0.09889257,0.0822151,0.105977334,0.098178364,0.09453726,0.09520319,0.08755534,0.08119835,0.10063573,0.10581528,0.095521234,0.089197755,0.091854125,0.09822073,0.10049807,0.09992591,0.105598226,0.10444308,0.10568773,0.10114276,0.09473689,0.0836239,0.07914647,0.08506334,0.09548593,0.09805173,0.09020554,0.08105608,0.08575825,0.091054544,0.085420445,0.08959242,0.08261452,0.07717626,0.07395349,0.08069167,0.084004745,0.078268655,0.07141562,0.069916174,0.078636125,0.09521294,0.11154415,0.10796566,0.08967442,0.09678685,0.107762754,0.09992321,0.09407387,0.102215044,0.10169271,0.08647725,0.08948332,0.09592057,0.09136681,0.08910835,0.09109025,0.087422036,0.08493635,0.08480302,0.08492515,0.073526464,0.078173295,0.07714195,0.07460721,0.075275175,0.080083184,0.07132976,0.073510855,0.07114125,0.092137754,0.09627875,0.09390509,0.09829028,0.09737953,0.075602286,0.08326604,0.09561251,0.08298637,0.07613181,0.07442603,0.08171448,0.07405044,0.062685214,0.06984887,0.07790014,0.06395099,0.060711686,0.06688955,0.063180745,0.0716491,0.0732559,0.077866174,0.06613267,0.083809964,0.08667676,0.07406651,0.08337038,0.084963635,0.08481089,0.08163189,0.081922136,0.07916479,0.092002034,0.06683932,0.07938855,0.084161,0.08061495,0.08924092,0.086494304,0.06676504,0.06383389,0.06758517,0.06986792,0.07372713,0.0715915,0.085952975,0.082349114,0.08061067,0.07210472,0.07066882,0.08419002,0.072410606,0.08143475,0.08627955,0.07447858,0.07935648,0.094851986,0.07589006,0.079505645,0.07967823,0.08724467,0.09865285,0.10985563,0.102483526,0.09914063,0.10727661,0.1068578,0.09569341,0.095045306,0.10386836,0.10504838,0.09690409,0.09535114,0.09113292,0.08578272,0.0946289,0.078561224,0.080560684,0.0826932,0.0747665,0.086667135,0.09273087,0.107178286,0.11087691,0.095140584,0.08665655,0.10353759,0.09269966,0.08967946,0.09953114,0.11039106,0.10320963,0.10469354,0.09012589,0.09074258,0.064303465,0.06796589,0.084318176,0.08884257,0.09450732,0.09485196,0.07769398,0.08578776,0.101149775,0.098982915,0.08845661,0.08668846,0.08847389,0.08022043,0.075539194,0.07542169,0.083144836,0.09972983,0.10295263,0.09409497,0.0951243,0.0880357,0.09403325,0.09456857,0.0955701,0.08789178,0.085708,0.083257966,0.09712839,0.09108458,0.085524194,0.0880366,0.07646017,0.089737,0.084094696,0.0808216,0.06840801,0.07516313,0.09193668,0.091840446,0.074772045,0.067962475,0.07663729,0.07722775,0.07413925,0.08830682,0.09595483,0.10738709,0.099913,0.08843385,0.09786385,0.09661644,0.08356437,0.07864089,0.08583904,0.08230794,0.07554916,0.084069185,0.08468559,0.09877644,0.099839985,0.09226976,0.089546315,0.0936635,0.08687463,0.08346843,0.08802073,0.08920652,0.09779095,0.1045288,0.09348222,0.07963429,0.07892028,0.09432194,0.09894706,0.087791935,0.07019242,0.075999945,0.08412577,0.09058981,0.092706785,0.075666435,0.078419134,0.076895006,0.0821358,0.08455348,0.10248728,0.096159644,0.09187126,0.092623584,0.09226556,0.08296121,0.078224994,0.0948052,0.081168756,0.07983713,0.08990336,0.09337343,0.08849552,0.09964752,0.08788331,0.086755104,0.09097062,0.08599762,0.080505475,0.0852791,0.08380825,0.07390515,0.06858425,0.080244064,0.084310524,0.078627,0.085707255,0.09164087,0.07948175,0.06911024,0.06376599,0.06844499,0.070022926,0.07475325,0.07451502,0.078342065,0.08744248,0.07640761,0.07473348,0.063024424,0.07269822,0.08835928,0.07622457,0.065907456,0.065706864,0.07936164,0.07472567,0.05849067,0.044336308,0.046261903,0.041976754,0.042575885,0.048823107,0.05546506,0.05286703,0.042550314,0.03908183,0.041195627,0.03367913,0.0394624,0.047521595,0.03615285,0.027515449,0.04202423,0.045766793,0.03786319,0.042149507,0.031374153,0.03005845,0.029720984,0.030322306,0.029713167,0.0301099,0.035142507,0.057945214,0.056527503,0.043837335,0.035153743,0.03544982,0.033863317,0.028251525,0.021701809,0.016319614,0.009666032,0.004617946,0.007895706,0.019898651,0.01900024,0.01724183,0.017041307,0.008673903,0.00030119,0.007908468,0.005670926,0.005781446,0.011517286,0.02120846,0.025984837,0.011492387,0.007993702,0.007015883,0.008222098,0.000411575,-0.000295953,0.001361336,0.003756139,-0.001121151,0.000687655,0.003786558,-0.000846799,-0.014448086,-0.008912028,-0.00728235,-0.016060714,-0.006528071,-0.002498705,-0.016967146,-0.021048693,-0.009808496,-0.00601879,-0.010173324,-0.012485524,-0.015913013,-0.0143736,-0.015626892,-0.013168156,-0.008615693,-0.01785738,-0.029241005,-0.031256683,-0.02419878,-0.014708763,-0.029657872,-0.03768581,-0.030262357,-0.021430898,-0.02119324,-0.011733676,-0.010883708,-0.03127992,-0.02687922,-0.010796024,-0.002763382,-0.016459357,-0.022539943,-0.01646746,-0.035247345,-0.041334897,-0.029698625,-0.026601978,-0.036903817,-0.031098211,-0.033393636,-0.040463597,-0.044428796,-0.03833039,-0.04790529,-0.064571545,-0.06427273,-0.066849545,-0.06828321,-0.064340994,-0.06524335,-0.06066527,-0.0590659,-0.06300388,-0.059802152,-0.05660299,-0.06701175,-0.07421842,-0.07580988,-0.07415717,-0.075952135,-0.06947791,-0.071147576,-0.06699129,-0.06782735,-0.070100404,-0.08823006,-0.08910783,-0.07766169,-0.082318164,-0.07100977,-0.075180575,-0.07322899,-0.071053214,-0.06182992,-0.04936014,-0.059348855,-0.060236447,-0.04940899,-0.05184851,-0.0665753,-0.05937833,-0.06591935,-0.054658886,-0.049523335,-0.053289805,-0.060576428,-0.059085112,-0.061381947,-0.05577734,-0.062479116,-0.065398455,-0.06707171,-0.0834048,-0.07250403,-0.07052177,-0.059954192,-0.075553365,-0.0869056,-0.06867046,-0.07176543,-0.06394306,-0.07343523,-0.078787334,-0.07160169,-0.06949579,-0.074478105,-0.0628769,-0.052860335,-0.065357916,-0.08897287,-0.0975037,-0.07946177,-0.08314289,-0.0927858,-0.08082195,-0.08156478,-0.093613006,-0.081796125,-0.08007774,-0.07962602,-0.08543148,-0.095259115,-0.09542488,-0.08991865,-0.08284401,-0.10008604,-0.09860597,-0.09448611,-0.09926611,-0.117879175,-0.120140366,-0.11374803,-0.10967669,-0.10787046,-0.1035783,-0.10624806,-0.10404774,-0.115761116,-0.11764431,-0.11102869,-0.105216675,-0.11677521,-0.110045955,-0.10683852,-0.11427258,-0.111848,-0.117489934,-0.100903966,-0.10302391,-0.10545225,-0.105020665,-0.110396795,-0.110804364,-0.11927873,-0.11932838,-0.12558165,-0.122541614,-0.1141141,-0.11735273,-0.12497262,-0.11099685,-0.11713504,-0.12580182,-0.12682605,-0.13494365,-0.12572089,-0.12529735,-0.1329249,-0.13295096,-0.12512037,-0.13100606,-0.15645762,-0.14288607,-0.13197494,-0.121937476,-0.12039382,-0.13610272,-0.1330058,-0.12689762,-0.12421968,-0.13472545,-0.14034618,-0.13996604,-0.13781251,-0.13336922,-0.1414978,-0.142184,-0.1348257,-0.13408184,-0.14304802,-0.13191895,-0.13642749,-0.14647228,-0.14599428,-0.15906952,-0.15492442,-0.1439279,-0.14869736,-0.15710807,-0.14681777,-0.13178065,-0.13958824,-0.13094068,-0.12308273,-0.13305084,-0.13996863,-0.14044721,-0.14791419,-0.14771898,-0.1437604,-0.15096064,-0.1598867,-0.16068034,-0.15478395,-0.14782721,-0.16523862,-0.15652679,-0.15302905,-0.1637868,-0.1691183,-0.15630011,-0.14998484,-0.15618545,-0.15610068,-0.1689541,-0.16940305,-0.15232639,-0.14470199,-0.14012982,-0.13604464,-0.15592076,-0.1550102,-0.17910413,-0.16902661,-0.17611796,-0.18363373,-0.16683699,-0.18388371,-0.18525083,-0.17788516,-0.16960095,-0.16956851,-0.1756749,-0.2018002,-0.20520826,-0.18706182,-0.17135404,-0.16477479,-0.16702516,-0.1748991,-0.17462264,-0.1748018,-0.1681988,-0.17397922,-0.17453448,-0.17153515,-0.16755928,-0.16738681,-0.16962089,-0.17726564,-0.1943934,-0.19455935,-0.18852131,-0.19191225,-0.18111774,-0.17735317,-0.19394287,-0.18910491,-0.17737244,-0.18569976,-0.1907716,-0.17952006,-0.18691306,-0.1813189,-0.17972684,-0.18906593,-0.18404897,-0.19070444,-0.19849084,-0.17186217,-0.17951538,-0.19249468,-0.19990034,-0.19058159,-0.18737896,-0.17435193,-0.18291642,-0.18063518,-0.17620476,-0.18824475,-0.19531222,-0.19324479,-0.18184859,-0.18204135,-0.18989508,-0.18460463,-0.17464073,-0.17428435,-0.16328247,-0.16257091,-0.17094718,-0.17516473,-0.1828385,-0.18714935,-0.19209991,-0.16555975,-0.18106696,-0.19955763,-0.18351679,-0.19368394,-0.19930068,-0.2074434,-0.20625463,-0.20042755,-0.21433999,-0.20953925,-0.19274838,-0.18331297,-0.1888992,-0.18639073,-0.17630817,-0.19207218,-0.20190105,-0.19401762,-0.18545748,-0.18943466,-0.19616035,-0.19319123,-0.20197307,-0.19829677,-0.19412501,-0.20027047,-0.19304048,-0.19899504,-0.1995281,-0.20116705,-0.20318525,-0.20309009,-0.21064758,-0.18791556,-0.18957767,-0.19457822,-0.188771,-0.19328871,-0.19235003,-0.1627522,-0.18869683,-0.19117561,-0.18854134,-0.19799304,-0.18805291,-0.19257163,-0.18404151,-0.18521588,-0.19141291,-0.1845794,-0.17977627,-0.18043649,-0.17896946,-0.18802434,-0.1849346,-0.17071266,-0.19205235,-0.19364333,-0.20048714,-0.17589405,-0.17842185,-0.18747386,-0.16524087,-0.17327435,-0.17505291,-0.17551555,-0.1718632,-0.1602073,-0.16413821,-0.16489856,-0.16524239,-0.15346989,-0.1452682,-0.15905876,-0.16876908,-0.1704007,-0.16106273,-0.16569497,-0.16831747,-0.14850225,-0.12986343,-0.1295145,-0.13305159,-0.13511224,-0.14062536,-0.15436766,-0.1411298,-0.14063755,-0.13927379,-0.14494172,-0.13910943,-0.14123464,-0.13619655,-0.13863388,-0.1403012,-0.14010125,-0.138548,-0.13170098,-0.12616414,-0.12872615,-0.13141216,-0.12556975,-0.12110919,-0.13041866,-0.124028645,-0.10977282,-0.11981626,-0.12373397,-0.11473372,-0.11614215,-0.11799463,-0.10921614,-0.12544118,-0.12393972,-0.113715045,-0.116172254,-0.112822026,-0.10701858,-0.10440171,-0.10473595,-0.09498092,-0.10144635,-0.10064895,-0.11461583,-0.10934379,-0.105663314,-0.10395848,-0.10663266,-0.09657973,-0.09502533,-0.09543606,-0.11174999,-0.10714799,-0.09437954,-0.09570885,-0.10023496,-0.0984571,-0.09165368,-0.08944158,-0.09464481,-0.08997787,-0.097566575,-0.08558502,-0.07882013,-0.08047924,-0.079280145,-0.07326318,-0.08143541,-0.085307196,-0.09455548,-0.092270404,-0.07905062,-0.09058516,-0.08182912,-0.0799043,-0.08558729,-0.083296455,-0.07672946,-0.07437302,-0.07984598,-0.07387144,-0.0790443,-0.08643294,-0.08090201,-0.07527184,-0.08145381,-0.08408815,-0.07422925,-0.06467381,-0.06664732,-0.06628413,-0.05436449,-0.051840607,-0.05997605,-0.067042,-0.058376893,-0.07071068,-0.07716986,-0.082129136,-0.068462364,-0.074972935,-0.08077784,-0.06461109,-0.06577192,-0.0688654,-0.07730304,-0.07821985,-0.07223481,-0.065431006,-0.06984404,-0.069306046,-0.07295809,-0.06807508,-0.050082494,-0.045623332,-0.027442563,-0.034578234,-0.026216324,-0.018314717,-0.025735607,-0.035787255,-0.03233547,-0.034381997,-0.045912113,-0.03890595,-0.030128,-0.03065657,-0.04172841,-0.04560317,-0.040294535,-0.033657428,-0.040487945,-0.053191967,-0.03761585,-0.0343369,-0.028848782,-0.025877135,-0.031744745,-0.028236512,-0.040982213,-0.037416264,-0.048185688,-0.045562778,-0.027963495,-0.031277694,-0.03046416,-0.04400812,-0.04452325,-0.04205382,-0.0350926,-0.04431102,-0.023628015,-0.033186685,-0.026930345,-0.030319916,-0.045701087,-0.043746676,-0.033941858,-0.02547777,-0.033388894,-0.030656561,-0.029036159,-0.033483233,-0.031825338,-0.024636053,-0.0331807,-0.04713356,-0.041463815,-0.033367574,-0.011077784,-0.038959716,-0.023297774,-0.012838081,-0.026108742,-0.028513744,-0.031050038,-0.027978748,-0.023454305,-0.03660262,-0.035740394,-0.01232704,-0.019190565,-0.014059112,-0.008911877,-0.019637737,-0.025807887,-0.022801071,-0.019536953,-0.02014509,-0.019985717,-0.012779095,-0.004932307,-0.014947571,-0.010448823,-0.015327107,-0.01889689,-0.015021565,-0.010477103,0.004183747,-0.004049899,-0.005017059,0.004501146,0.011068633,0.009500192,0.013797011,-0.006041108,0.004876326,-0.004165059,-0.007838884,8.40E-05,-0.009936984,0.005048433,-0.001509558,-0.005438058,-0.005116658,-0.004532325,-0.006087167,0.000786507,0.006267534,0.004294418,0.011955994,0.014635316,0.016202414,0.003720577,-0.001092373,0.013167393,0.020987585,0.013108714,-0.008969836,-0.004735118,-0.0062577,-0.000646727,0.005901922,0.004648624,0.009713435,0.015954735,0.012700811,0.007724157,-0.000274509,0.006548356,0.02555036,0.033641454,0.029091882,0.027639225,0.030563636,0.024634298,0.022623641,0.007659748,0.004350117,0.01908034,0.025603488,0.024881678,0.022855086,0.015383634,0.015188345,0.021111885,0.026483037,0.03608864,0.041249502,0.021651814,0.019131608,0.032312043,0.03645759,0.023921385,0.022052307,0.030263243,0.036484152,0.03179536,0.025964605,0.029942779,0.045878876,0.036066268,0.038127374,0.04058897,0.034135513,0.021284148,0.040384352,0.03535358,0.039729763,0.025909474,0.0322636,0.040881954,0.03803821,0.023157226,0.023568297,0.03213723,0.034597263,0.037628513,0.044214502,0.040962923,0.038982257,0.04288684,0.040369496,0.029449599,0.031128088,0.040889796,0.045661546,0.046610817,0.055310197,0.05363906,0.045242257,0.045532875,0.056963425,0.05730437,0.04424565,0.036181398,0.04850644,0.04965482,0.050342053,0.06729027,0.07847342,0.075612925,0.067270085,0.05986437,0.083305754,0.08425671,0.07978408,0.07741812,0.07434463,0.06241108,0.07040832,0.076228224,0.07366441,0.08279685,0.098610416,0.08867509,0.07486291,0.071429536,0.080119394,0.07499882,0.07527297,0.07554933,0.08688106,0.09027267,0.09503905,0.10592422,0.10197994,0.087830484,0.08478981,0.08006264,0.075661995,0.09261827,0.11376953,0.1074143,0.104429886,0.09793376,0.0900424,0.099426486,0.09963911,0.08322082,0.08974237,0.107394956,0.09936053,0.0834937,0.08638164,0.0830998,0.07997678,0.081859626,0.09029168,0.08405832,0.075396284,0.0737684,0.08121867,0.08246147,0.07462181,0.08094822,0.07894064,0.08331036,0.085256286,0.08498005,0.085134216,0.09581566,0.10627319,0.079113156,0.07477304,0.08671918,0.10027915,0.10113931,0.08556085,0.08577585,0.09523213,0.08383074,0.072767906,0.07963938,0.084975295,0.10176626,0.09688082,0.095759585,0.087470435,0.07937728,0.075538464,0.0825979,0.0852975,0.08484616,0.089589536,0.089572415,0.08328952,0.09107441,0.096227735,0.0853048,0.09222608,0.100891076,0.103257075,0.12711489,0.1300233,0.12448633,0.115828834,0.108274095,0.11791964,0.11169484,0.09662927,0.09860836,0.09380426,0.09606839,0.11880249,0.10330026,0.099666424,0.100714825,0.092574336,0.08054753,0.08487904,0.08695867,0.08830907,0.083470084,0.09043706,0.09065255,0.10441933,0.10133903,0.10033339,0.095038675,0.10175468,0.10467911,0.10608076,0.09704622,0.095000885,0.10646948,0.110691905,0.107246056,0.10097733,0.103531845,0.10106795,0.09598283,0.0887093,0.0906915,0.09400855,0.102135,0.10343177,0.09693571,0.090919755,0.08542265,0.09143191,0.10393891,0.09950738,0.09354144,0.09183669,0.0940783,0.09611624,0.09159735,0.089793555,0.10292361,0.10096225,0.09869533,0.10395863,0.10101629,0.10907851,0.10928832,0.1043921,0.10499632,0.10855559,0.110408954,0.11094686,0.12508053,0.13118105,0.12260155,0.110069685,0.109242395,0.09405168,0.09453201,0.10560224,0.0996581,0.10075924,0.09871117,0.10432383,0.09416856,0.084262155,0.0909224,0.09039238,0.0997957,0.09551617,0.113187805,0.1220361,0.12379669,0.11626316,0.114972524,0.11489207,0.12183388,0.12227885,0.110038064,0.11414666,0.11939676,0.120723635,0.117795125,0.11457307,0.11509407,0.12346851,0.11412151,0.108901225,0.1149833,0.12901041,0.12918375,0.11307044,0.10248361,0.11427713,0.121176004,0.120316714,0.12909585,0.11754165,0.12425533,0.124408156,0.12584236,0.11668107,0.11262733,0.1229114,0.1107217,0.124119535,0.11022339,0.096073814,0.10862516,0.098664306,0.11512157,0.10729627,0.10901132,0.11626368,0.111091204,0.10513353,0.11143468,0.11524011,0.11487537,0.118128695,0.12632872,0.13334846,0.12197334,0.11989868,0.11990441,0.1204495,0.12496803,0.12546973,0.121881366,0.1230928,0.11283614,0.120923705,0.13126376,0.118688315,0.12921964,0.124514826,0.1336305,0.13679193,0.12632553,0.12104893,0.11136952,0.12110014,0.13534029,0.1402877,0.14029299,0.13920204,0.1353383,0.1355349,0.14349695,0.11972054,0.1110266,0.12937522,0.11634767,0.115299605,0.11459851,0.12456061,0.13647895,0.1318931,0.13280192,0.13539673,0.12651132,0.12917112,0.13142441,0.12553437,0.13304283,0.12140011,0.12154831,0.13109511,0.131775,0.13969675,0.13567641,0.12751338,0.1292664,0.13128339,0.11910796,0.1206542,0.12089914,0.13367118,0.13476577,0.13202737,0.124080144,0.12086163,0.12746866,0.12975335,0.1403899,0.1517025,0.14086391,0.12834169,0.13592838,0.13810831,0.13238247,0.12733465,0.13878946,0.1474349,0.13628821,0.13515875,0.13454753,0.1356346,0.13406442,0.13934258,0.13990186,0.14677605,0.14935675,0.15549786,0.16159362,0.15023173,0.15551347,0.14449356,0.144178,0.15903334,0.16442393,0.16598842,0.17037798,0.15279359,0.14277549,0.15054053,0.14398892,0.14492378,0.1328613,0.12964816,0.13470604,0.14064112,0.14044663,0.1500402,0.1419782,0.14012505,0.14434546,0.13910921,0.1408233,0.13587376,0.13957757,0.1525137,0.16241954,0.1658288,0.16106068,0.15091644,0.14911084,0.153573,0.16229619,0.15146062,0.14593162,0.14924228,0.15285596,0.1501149,0.14306164,0.15082206,0.1490024,0.15213671,0.15789238,0.16093487,0.15062703,0.15541923,0.15454775,0.1554644,0.15451734,0.15568015,0.16786888,0.1924935,0.18717916,0.17074268,0.17873894,0.1744486,0.16875109,0.17152609,0.16172825,0.15634401,0.17616518,0.17247495,0.1718099,0.17992423,0.17922053,0.16847786,0.15634015,0.15788339,0.16064288,0.15049477,0.14479527,0.15351574,0.15204847,0.14962962,0.15018596,0.15622759,0.16071345,0.15551186,0.14024323,0.16320091,0.15799053,0.14947031,0.14550713,0.13428351,0.14023899,0.14058158,0.15592304,0.15758911,0.15415457,0.1560441,0.16486663,0.15567411,0.14850894,0.15440153,0.15895538,0.14906207,0.1446318,0.16205561,0.17268343,0.15870911,0.15748243,0.16599908,0.16224188,0.15883067,0.1701862,0.1678354,0.1578796,0.15130937,0.15356871,0.15064321,0.14445844,0.14486906,0.14960703,0.1609183,0.14560884,0.15120685,0.14565818,0.14091857,0.15366049,0.16409555,0.16464889,0.14856851,0.15037224,0.15613492,0.15080875,0.1590239,0.14629576,0.1472698,0.15811102,0.15529454,0.13889728,0.15017267,0.157627,0.16466759,0.1520229,0.15905793,0.14337106,0.13246883,0.14703657,0.13742572,0.12742619,0.12541638,0.12650532,0.13557318,0.12495895,0.13244958,0.13123474,0.12351854,0.12907624,0.13493297,0.13415773,0.12893811,0.1332966,0.13213758,0.11989265,0.12061688,0.118012406,0.113888696,0.12251004,0.12588577,0.11849628,0.12306337,0.12240301,0.11914741,0.12097062,0.11715048,0.11318162,0.13451007,0.12683494,0.12493617,0.13090932,0.12503056,0.11152161,0.12126035,0.12211228,0.12930152,0.123496786,0.12867996,0.13296607,0.11569904,0.121537685,0.14260769,0.1357851,0.13293059,0.12920147,0.105961934,0.12390304,0.11246748,0.10996159,0.110277355,0.12106045,0.11777506,0.11245501,0.10523843,0.12297848,0.11944499,0.1152484,0.12293929,0.10717126,0.10983951,0.10816693,0.10849767,0.114571825,0.10095496,0.100049354,0.09986791,0.10100311,0.11138457,0.11595089,0.10978835,0.097748615,0.087610774,0.08361868,0.09612691,0.11083384,0.11298397,0.09455906,0.10302896,0.087079465,0.082192935,0.09805183,0.08987486,0.08217847,0.078876756,0.08108964,0.078261524,0.07486382,0.076891996,0.08822979,0.09494596,0.08781079,0.07903974,0.078249216,0.07329412,0.08041047,0.06173651,0.07417246,0.08445915,0.07469786,0.07987208,0.080103494,0.07868337,0.07134853,0.06979629,0.07439386,0.068569206,0.05722267,0.069428205,0.076090656,0.07954398,0.08368305,0.06356146,0.060530137,0.05589742,0.06314829,0.056007124,0.07140226,0.084721394,0.07805405,0.05992042,0.05507498,0.05462966,0.057456475,0.064541236,0.05600151,0.05471099,0.054840762,0.05771034,0.057592403,0.044643443,0.05205006,0.054540843,0.055948846,0.05053502,0.054802008,0.054567672,0.056098886,0.049209666,0.043646608,0.046336375,0.048102222,0.03707961,0.03479661,0.035166144,0.03440434,0.03137632,0.04235476,0.03527668,0.042803925,0.045181915,0.039618086,0.040273782,0.037976556,0.026726935,0.02462814,0.025550563,0.032970633,0.032512512,0.029238846,0.034269493,0.017939758,0.016591536,0.021179842,0.015756411,0.01078782,0.014878988,0.01532173,0.012728878,0.002153042,-0.00516165,0.001184937,-0.003807942,-0.013857476,-0.015237144,-0.01062167,-0.015223829,-0.014852346,-0.013321218,-0.001417409,7.74E-05,-0.000236642,-0.009046177,-0.020917717,-0.02703415,-0.013811424,-0.011250308,0.001390299,-0.018065672,-0.026260061,0.000506231,-0.01341536,-0.030411998,-0.030780438,-0.019599965,-0.019722488,-0.024656286,-0.058051426,-0.058964185,-0.057682887,-0.057869274,-0.07348275,-0.062485088,-0.05246891,-0.044492483,-0.06459411,-0.06828924,-0.057503033,-0.05357602,-0.06629763,-0.0716293,-0.06766508,-0.0683163,-0.07714855,-0.07003416,-0.070589654,-0.06965125,-0.07984396,-0.0876876,-0.09492881,-0.08911139,-0.07448923,-0.07723108,-0.09546873,-0.09730933,-0.085256934,-0.08471788,-0.08661254,-0.09319766,-0.095936336,-0.08903325,-0.08790986,-0.102211684,-0.096194796,-0.09503012,-0.090724,-0.102121286,-0.11156586,-0.106484435,-0.104911566,-0.10489161,-0.11221759,-0.12137859,-0.11676351,-0.114549324,-0.10676225,-0.10958531,-0.12021766,-0.123049505,-0.11881178,-0.12529711,-0.1243677,-0.1271498,-0.12875336,-0.116081096,-0.11604943,-0.1298995,-0.12221518,-0.1198039,-0.11997824,-0.124685995,-0.13073032,-0.12906834,-0.13328286,-0.13518336,-0.1392668,-0.12769751,-0.11886794,-0.122526154,-0.13286723,-0.13568763,-0.13500182,-0.1441922,-0.15378574,-0.15515019,-0.14664565,-0.15529382,-0.1643118,-0.17126587,-0.16913956,-0.17514618,-0.17502072,-0.18366571,-0.17956959,-0.17354344,-0.1803088,-0.18729448,-0.20248611,-0.18076225,-0.18118906,-0.19551423,-0.20072524,-0.20705546,-0.2132272,-0.21552141,-0.21006586,-0.20436081,-0.20683289,-0.2130928,-0.21582755,-0.21425529,-0.22210549,-0.21255042,-0.19210933,-0.19262595,-0.21462479,-0.21361162,-0.22041912,-0.2177541,-0.20730567,-0.21600923,-0.21488126,-0.22169219,-0.21839274,-0.22490716,-0.22381303,-0.21570912,-0.22214143,-0.22783972,-0.23427056,-0.23525676,-0.24028406,-0.2298165,-0.22536485,-0.21688873,-0.24603067,-0.2373073,-0.21766755,-0.23142046,-0.22446623,-0.22622882,-0.22405967,-0.23535521,-0.24229781,-0.2500526,-0.25774905,-0.25616777,-0.24369386,-0.24540174,-0.2512437,-0.24502596,-0.25151443,-0.25389802,-0.24834627,-0.25468633,-0.25483042,-0.26092225,-0.25975633,-0.27339756,-0.2608071,-0.24772488,-0.25473446,-0.27264813,-0.2635723,-0.2588712,-0.27433896,-0.27345607,-0.26330015,-0.2662658,-0.2638019,-0.26638025,-0.27006397,-0.2869258,-0.28230137,-0.26574928,-0.2781208,-0.28171676,-0.28714892,-0.30541906,-0.31065542,-0.30536956,-0.29878443,-0.3028551,-0.3043884,-0.3096181,-0.30391574,-0.29177558,-0.31078392,-0.31537926,-0.31495297,-0.30599234,-0.29873687,-0.30243847,-0.30738935,-0.31182915,-0.29454836,-0.3051278,-0.32007682,-0.3111659,-0.30630296,-0.30467755,-0.3110667,-0.30617666,-0.30007356,-0.31499973,-0.30466738,-0.3132731,-0.30923104,-0.3148985,-0.33191296,-0.32375124,-0.31497163,-0.3265111,-0.33259672,-0.31122246,-0.30587736,-0.30427015,-0.3056857,-0.3042927,-0.3058774,-0.29912612,-0.29758278,-0.31386772,-0.31435272,-0.31599617,-0.30889544,-0.30753064,-0.31528395,-0.31781414,-0.317197,-0.31380847,-0.31663853,-0.3200841,-0.32199222,-0.33016095,-0.3201418,-0.32066733,-0.30823416,-0.31776604,-0.33768752,-0.32870594,-0.33693984,-0.3318376,-0.3303486,-0.32942772,-0.33519113,-0.34032652,-0.3391947,-0.34548554,-0.35153106,-0.34901485,-0.35068202,-0.34971985,-0.3478335,-0.3437913,-0.34142712,-0.3466371,-0.36377802,-0.35404432,-0.36402002,-0.36413085,-0.3732521,-0.36907896,-0.35602826,-0.35429043,-0.36428264,-0.34053355,-0.33886623,-0.3285105,-0.32443455,-0.34602195,-0.34426785,-0.34384885,-0.3407558,-0.35070622,-0.3532145,-0.34980422,-0.33488405,-0.34165448,-0.3452764,-0.34523436,-0.34458658,-0.34537476,-0.34665987,-0.3523919,-0.34226546,-0.34601888,-0.35759425,-0.34632072,-0.33727786,-0.35213715,-0.34952086,-0.33504808,-0.3261707,-0.33166814,-0.34519187,-0.3386658,-0.33281264,-0.33169702,-0.336586,-0.3297479,-0.34138885,-0.32861578,-0.33030882,-0.3393965,-0.34149835,-0.35333362,-0.333724,-0.33246034,-0.3358724,-0.33413684,-0.33016592,-0.3307221,-0.34164453,-0.34563127,-0.34489813,-0.3441905,-0.33928934,-0.3386719,-0.32593462,-0.34335095,-0.35059357,-0.34030792,-0.33207518,-0.3223946,-0.3104725,-0.32227024,-0.3325749,-0.33558208,-0.3343737,-0.34467658,-0.34348893,-0.33181393,-0.33005905,-0.32975394,-0.33056915,-0.3349609,-0.33440715,-0.32106975,-0.30985248,-0.3059344,-0.31796336,-0.3308751,-0.31985036,-0.31811744,-0.3203063,-0.32728824,-0.33510342,-0.32100034,-0.31249586,-0.31402704,-0.32074156,-0.31970438,-0.31987143,-0.32352415,-0.34285372,-0.33385068,-0.31091765,-0.31244472,-0.32255134,-0.31395182,-0.3156346,-0.3047878,-0.30154532,-0.31011906,-0.30477265,-0.30603075,-0.30179077,-0.30536684,-0.31121612,-0.3097344,-0.3084395,-0.29828793,-0.30310744,-0.3093027,-0.29224283,-0.2960225,-0.30814743,-0.3126584,-0.31262216,-0.3082549,-0.31236595,-0.31323233,-0.30702913,-0.30100483,-0.28670165,-0.30218652,-0.3001204,-0.28694612,-0.29535356,-0.29888737,-0.29897863,-0.2796588,-0.30319905,-0.32205656,-0.30385253,-0.28577402,-0.29782853,-0.28804046,-0.28472394,-0.28473893,-0.27945656,-0.28308257,-0.29465067,-0.29437482,-0.29573062,-0.29417807,-0.29605448,-0.29178914,-0.28642792,-0.2839122,-0.2869281,-0.28862336,-0.28125978,-0.28635922,-0.30056536,-0.28050527,-0.27806714,-0.27449158,-0.26888552,-0.27475047,-0.2756748,-0.2714242,-0.2628772,-0.2732112,-0.27940276,-0.269716,-0.27888492,-0.2743368,-0.26885334,-0.27036285,-0.26420856,-0.26587293,-0.26192206,-0.25940582,-0.2606454,-0.2579745,-0.24837527,-0.25357693,-0.25494868,-0.25582343,-0.26511043,-0.2654785,-0.26006496,-0.24948493,-0.2593025,-0.24860501,-0.254256,-0.2612814,-0.2559875,-0.2461004,-0.25631908,-0.26019186,-0.2620557,-0.2699702,-0.26011163,-0.2493518,-0.25039998,-0.24970591,-0.25022057,-0.25403276,-0.24996915,-0.25052682,-0.24490038,-0.23785356,-0.24625489,-0.23660906,-0.24099763,-0.25212386,-0.24235934,-0.22545452,-0.23252761,-0.23931676,-0.23325324,-0.23975633,-0.23074043,-0.23001309,-0.22855607,-0.22335316,-0.23305666,-0.2478204,-0.2290819,-0.23246224,-0.23300228,-0.22860426,-0.23542011,-0.22855023,-0.2321672,-0.22262427,-0.22718512,-0.23011556,-0.21957864,-0.21763758,-0.20261957,-0.1994767,-0.20946525,-0.21559444,-0.21449403,-0.21724151,-0.22818135,-0.2212475,-0.20748669,-0.20673558,-0.21313617,-0.21579057,-0.20535886,-0.19881448,-0.19431362,-0.1957136,-0.19106781,-0.18102561,-0.18546458,-0.19267818,-0.19518037,-0.19508724,-0.1946053,-0.18940401,-0.18214008,-0.18228084,-0.18618454,-0.17502792,-0.16967937,-0.17141607,-0.1785778,-0.18034686,-0.17072359,-0.16409706,-0.16595817,-0.16354401,-0.1733027,-0.17033331,-0.16488005,-0.16439721,-0.16867332,-0.15997502,-0.1349047,-0.13592611,-0.1436189,-0.1520993,-0.14519078,-0.14037754,-0.12259349,-0.1302467,-0.13487679,-0.13906741,-0.14398853,-0.1407761,-0.13734359,-0.13740574,-0.1408327,-0.13515757,-0.1423146,-0.1599539,-0.15326075,-0.15350154,-0.13700365,-0.12975976,-0.13532071,-0.12486589,-0.129576,-0.12482084,-0.11357414,-0.1105801,-0.121328406,-0.1295007,-0.12121887,-0.119334824,-0.12058138,-0.11938582,-0.12079319,-0.109926,-0.09870739,-0.0952269,-0.10722375,-0.10678098,-0.10007293,-0.09956968,-0.102267705,-0.1028856,-0.1020039,-0.11185336,-0.112300284,-0.103204325,-0.09631465,-0.09507455,-0.094762415,-0.10149967,-0.09440156,-0.08012481,-0.08370639,-0.0902677,-0.09563295,-0.10186016,-0.09169702,-0.07608079,-0.070582874,-0.0818472,-0.08330929,-0.07934779,-0.080178,-0.08832843,-0.07367476,-0.07979664,-0.08100891,-0.06920957,-0.07108901,-0.08164664,-0.0929401,-0.09429762,-0.067130625,-0.05345362,-0.066955626,-0.064607,-0.07525118,-0.073571384,-0.072436765,-0.0661113,-0.061712936,-0.0679464,-0.06790326,-0.05822425,-0.06993327,-0.079842426,-0.0814181,-0.071500495,-0.07447121,-0.06280677,-0.07228046,-0.07609103,-0.0645087,-0.065340266,-0.06464269,-0.05625505,-0.062843315,-0.07559684,-0.07945509,-0.09126239,-0.088088304,-0.07951112,-0.07298549,-0.081966385,-0.09348576,-0.08062714,-0.07128133,-0.06967589,-0.07477632,-0.07434466,-0.06775888,-0.063826784,-0.07273231,-0.07562754,-0.07532735,-0.08236444,-0.08808793,-0.08742875,-0.07456557,-0.07604793,-0.072229825,-0.072362706,-0.076050915,-0.06962337,-0.07143211,-0.07480408,-0.07974126,-0.09092456,-0.07882532,-0.05994346,-0.06708823,-0.058157627,-0.061235428,-0.07148384,-0.074298315,-0.075478695,-0.07658771,-0.08546246,-0.07071667,-0.07715874,-0.086351626,-0.08163504,-0.082925364,-0.086312234,-0.08310701,-0.080045685,-0.08173341,-0.090435006,-0.07593248,-0.094256975,-0.10344421,-0.08520865,-0.07502788,-0.07114159,-0.07563389,-0.090018466,-0.08120213,-0.07012285,-0.07407575,-0.07630462,-0.07156034,-0.075486675,-0.084202,-0.09088774,-0.09221954,-0.08755378,-0.099093646,-0.10397039,-0.087080196,-0.08545453,-0.08812091,-0.07467134,-0.07600656,-0.07425056,-0.081848115,-0.08612191,-0.094169885,-0.09141777,-0.089197144,-0.09171702,-0.093399644,-0.08944454,-0.08677796,-0.079997115,-0.078948416,-0.07606447,-0.08088469,-0.08615425,-0.09621653,-0.08231295,-0.0895865,-0.08313623,-0.086535744,-0.100326136,-0.099495605,-0.10075489,-0.09685678,-0.0948064,-0.09420697,-0.08565354,-0.09052856,-0.09216945,-0.09614112,-0.09438146,-0.09454081,-0.09010775,-0.09955189,-0.099497475,-0.09595173,-0.09523825,-0.100129,-0.09028937,-0.08758621,-0.078727774,-0.08740681,-0.08072575,-0.08430837,-0.080299355,-0.0819862,-0.099891804,-0.09977776,-0.087167524,-0.09244463,-0.09067927,-0.07850764,-0.08486974,-0.103102244,-0.104515746,-0.09746324,-0.0904097,-0.0808083,-0.090000555,-0.10789157,-0.096423805,-0.0888146,-0.08240721,-0.08191064,-0.09282256,-0.08762043,-0.08191087,-0.0935099,-0.09015707,-0.07648486,-0.091106966,-0.08885199,-0.09114288,-0.08693536,-0.08099214,-0.07992698,-0.0780157,-0.06010105,-0.06600586,-0.074220456,-0.08028191,-0.08422148,-0.08012407,-0.0919935,-0.095324725,-0.09539532,-0.099436864,-0.092758775,-0.087188385,-0.080698304,-0.08476509,-0.10321965,-0.11019147,-0.11061795,-0.102676,-0.08590134,-0.09048592,-0.09898788,-0.10710577,-0.093609415,-0.075251855,-0.08176806,-0.08345538,-0.07893632,-0.08395799,-0.09401361,-0.09014374,-0.08689075,-0.059851594,-0.068530045,-0.08199647,-0.07260431,-0.07907618,-0.07397481,-0.07227544,-0.07277166,-0.07100521,-0.058973238,-0.06016286,-0.063377954,-0.0657799,-0.06402243,-0.056509938,-0.04729274,-0.062236644,-0.07392735,-0.06448884,-0.055658102,-0.05081917,-0.060803387,-0.0539404,-0.05820048,-0.06343799,-0.0598496,-0.052975543,-0.04498638,-0.061958183,-0.056375746,-0.060383007,-0.06671478,-0.06297258,-0.05721415,-0.06629478,-0.061900795,-0.059323035,-0.060541477,-0.053156067,-0.06144817,-0.06781391,-0.042525683,-0.044333898,-0.04443859,-0.038817137,-0.041459743,-0.031811334,-0.038280103,-0.029198887,-0.03399808,-0.040947,-0.043168757,-0.04088503,-0.028365016,-0.03267685,-0.035431966,-0.03127293,-0.030041607,-0.04086713,-0.03953342,-0.03816789,-0.033047665,-0.046294488,-0.05319174,-0.04105363,-0.030673107,-0.030623458,-0.024371738,-0.020847863,-0.016020726,-0.010356885,-0.027620777,-0.030494284,-0.029441867,-0.020928133,-0.013461488,-0.016206147,-0.005274486,-0.017607013,-0.016070807,-0.009047131,-0.006940018,-0.008760677,-0.02291056,-0.022459745,-0.020252172,-0.016061112,-0.010705562,-0.015230298,-0.023603253,-0.01946591,-0.013905832,-0.010695634,-0.004530467,-0.003659933,0.000932248,0.002872905,-0.011121644,-0.012713361,-0.015268451,-0.025286822,-0.016882969,-0.010203379,-0.003978714,-0.006456354,-0.000857532,-0.004127761,-0.000465863,-0.013176844,-0.017323077,-0.005765942,-0.001568958,0.000307413,-0.011162518,0.002040938,0.011218853,0.009663879,0.009126772,-0.011519545,-0.007305485,-0.00487209,-0.00504878,0.004066606,0.011100435,0.008758198,0.013558315,0.014931221,0.019612255,0.013714652,0.009600048,0.010383794,0.006307948,0.004743365,0.010428586,0.012158519,0.025834454,0.019749697,0.021022307,0.006902083,0.028086552,0.031498842,0.009092701,0.002752526,0.015633715,0.020668257,0.021760993,0.030092232,0.024419365,0.015839312,0.028433977,0.014329197,0.019934941,0.03164296,0.034642715,0.033651248,0.028850429,0.030759504,0.029370911,0.031101216,0.036103174,0.031208292,0.037049096,0.036441777,0.028648658,0.031211972,0.026889259,0.021030651,0.028398655,0.031468093,0.03685942,0.04091114,0.03942957,0.044203296,0.028212393,0.024696836,0.02748797,0.031048672,0.025214972,0.036285277,0.032522306,0.027701419,0.020081714,0.02099049,0.030690366,0.036431517,0.03135225,0.030140746,0.03370545,0.030715771,0.028837983,0.033829268,0.031205144,0.030242803,0.034392003,0.02796447,0.02168559,0.019625574,0.028996637,0.036903407,0.028600419,0.020473816,0.030628815,0.024674337,0.025595572,0.023432832,0.014316486,0.008133909,0.016520014,0.024743343,0.03421347,0.02849857,0.03136149,0.040652674,0.034482278,0.044434186,0.05572285,0.06222904,0.03517026,0.026340542,0.036995463,0.030988475,0.03371311,0.03069692,0.024141042,0.025778651,0.024021935,0.029367099,0.033771887,0.024518995,0.017754538,0.030941272,0.049983315,0.044634964,0.03352012,0.030955408,0.038638104,0.043553837,0.045662977,0.03852537,0.043205734,0.041899115,0.04328714,0.040752616,0.028363585,0.033038314,0.032518853,0.02890035,0.040313784,0.049709015,0.043603342,0.046673324,0.036508363,0.044156585,0.04386837,0.042350087,0.055010524,0.05416596,0.051565044,0.048240688,0.054726593,0.058879294,0.043345097,0.02935462,0.032888934,0.04894349,0.0449886,0.03745884,0.052457247,0.06733131,0.050466422,0.04219903,0.064344704,0.071486674,0.063832544,0.064785875,0.05321273,0.049048845,0.06406921,0.05823106,0.059350707,0.07570003,0.073775135,0.075932056,0.06841884,0.07189622,0.06537866,0.072675906,0.08842781,0.078915074,0.06562824,0.07098712,0.07595274,0.06591025,0.070680514,0.07533712,0.061940186,0.067562476,0.074155904,0.06576383,0.071303114,0.082121804,0.07494615,0.068307005,0.08242892,0.07644366,0.0758079,0.07377242,0.08549702,0.08193857,0.06567296,0.055507794,0.062229313,0.07087786,0.0811068,0.085639976,0.084369,0.08895825,0.07291291,0.06700798,0.06906265,0.07594935,0.07787303,0.08984017,0.08404901,0.08747343,0.08846766,0.073485844,0.063528255,0.06975625,0.09674073,0.097590804,0.090745755,0.08543598,0.084427856,0.08814317,0.0996276,0.099275455,0.09699698,0.09713101,0.089913435,0.087064974,0.08783274,0.099994466,0.10622578,0.11012866,0.11267462,0.11235816,0.10943072,0.1335108,0.120946765,0.10825645,0.110707246,0.10557753,0.11654197,0.11905519,0.112698734,0.12708199,0.13895616,0.12949517,0.121597074,0.12537625,0.13118117,0.13456872,0.1447813,0.13064952,0.1312298,0.12842706,0.13667595,0.13682976,0.13136041,0.13759646,0.14822657,0.14977683,0.14593041,0.14929557,0.14109465,0.13984413,0.14467148,0.14431252,0.13894773,0.14273268,0.15240398,0.16525373,0.1636729,0.15970472,0.16003543,0.16011809,0.163686,0.15513834,0.15331528,0.15061237,0.16788648,0.16056594,0.143225,0.14905553,0.15873,0.16038342,0.15923376,0.15653947,0.1672028,0.16039473,0.16779447,0.16131534,0.15407112,0.15543304,0.15677406,0.1650933,0.16427137,0.1660957,0.16225107,0.16058905,0.15234987,0.14143682,0.16157867,0.16664939,0.17316942,0.17910883,0.17963056,0.16996539,0.1770564,0.16860639,0.16415526,0.16143331,0.1636842,0.16056973,0.17146477,0.17617165,0.1690368,0.1607913,0.16570552,0.16463481,0.16511577,0.1696314,0.16860525,0.1579057,0.16378866,0.1681049,0.17993298,0.16727401,0.16891223,0.17641455,0.17088209,0.16963506,0.17070696,0.17875363,0.18712915,0.1798516,0.1853278,0.18418905,0.18528399,0.17154987,0.18132284,0.18977971,0.18653315,0.1967134,0.1916666,0.18937951,0.19090505,0.18742546,0.17947619,0.17952085,0.18745658,0.19030628,0.17196648,0.16395149,0.16998924,0.18378563,0.18515101,0.1848999,0.18602723,0.1962857,0.20102799,0.1956816,0.21782276,0.21745907,0.21529798,0.2110525,0.20514493,0.19321056,0.19897237,0.1934646,0.19658111,0.20523143,0.19995248,0.19702086,0.18561108,0.18494885,0.1941462,0.18740296,0.17250884,0.17901613,0.1798461,0.18029232,0.1861535,0.19036093,0.19036163,0.18281518,0.18318267,0.18638739,0.18243611,0.17956048,0.18355851,0.18578403,0.18379846,0.17806584,0.17388381,0.17913459,0.18902813,0.19018756,0.18120517,0.18565482,0.18813305,0.17386644,0.17146428,0.17627767,0.18406461,0.18449639,0.18170306,0.1769808,0.18072854,0.19231994,0.1821332,0.17896883,0.1940387,0.18539782,0.1662162,0.17873557,0.1890379,0.17828003,0.18702407,0.18902698,0.17305869,0.17227504,0.17470708,0.1816698,0.17882611,0.18073319,0.18029039,0.18869634,0.16986136,0.17375983,0.1782218,0.18068686,0.16820076,0.17190932,0.16583173,0.16556296,0.16874072,0.17746389,0.17916504,0.18132581,0.17516495,0.1758665,0.17305724,0.17068037,0.16656867,0.16807415,0.19309852,0.19459759,0.16843835,0.15185767,0.16697593,0.1795178,0.16841793,0.16454048,0.16775343,0.16760837,0.15902594,0.16693948,0.16221432,0.1750051,0.17728794,0.16961709,0.16444609,0.16620913,0.15903698,0.15393601,0.16411172,0.16003929,0.15984784,0.16028666,0.15951753,0.16515313,0.16370432,0.15983267,0.15961632,0.16390526,0.16093265,0.16584598,0.17088105,0.1673555,0.1605471,0.16461173,0.16439207,0.15772085,0.15400033,0.1594029,0.15901034,0.15188964,0.17082505,0.17530987,0.17488238,0.17540745,0.17961614,0.1723281,0.16972639,0.17014258,0.16559896,0.1709702,0.17575186,0.1742848,0.17889109,0.18063046,0.17801797,0.16848725,0.17139575,0.16521782,0.1744865,0.17458719,0.17705493,0.18063782,0.17658216,0.1649588,0.16635193,0.17090325,0.18227212,0.17808107,0.17039193,0.18589984,0.18495013,0.18029624,0.17252153,0.18619646,0.18873352,0.193045,0.19233355,0.18927969,0.19511425,0.20027635,0.19990121,0.19822596,0.18649392,0.18944459,0.19585446,0.19291131,0.18916261,0.19386241,0.19568695,0.20050079,0.20694734,0.19648652,0.18446586,0.18200916,0.20164083,0.20366846,0.19874127,0.20406213,0.20594703,0.21505155,0.21561433,0.20967026,0.20323764,0.21089093,0.21475701,0.21477619,0.21976715,0.22762835,0.2047905,0.2077132,0.21525674,0.21744451,0.2212345,0.20528741,0.20106198,0.21465468,0.22378208,0.22173232,0.2276194,0.21990214,0.21219921,0.20941393,0.21708477,0.23381534,0.21253058,0.21168047,0.22018772,0.23072973,0.2238222,0.21548204,0.21392943,0.22035797,0.23337781,0.23521462,0.22293569,0.2203867,0.21911143,0.22453621,0.20254748,0.19910178,0.2114698,0.22233613,0.21169288,0.20959018,0.21031705,0.20943667,0.21293321,0.21551223,0.22312449,0.20829244,0.2079906,0.21709186,0.21353723,0.21222849,0.21955423,0.21887687,0.2138351,0.20937197,0.19766392,0.20253535,0.1977406,0.21806747,0.2038634,0.21466939,0.23374389,0.21654874,0.2270009,0.23067628,0.22035636,0.21518998,0.22171816,0.21586978,0.21918951,0.2017745,0.20113145,0.21166694,0.21103516,0.22061054,0.21895316,0.2211515,0.21703741,0.19815417,0.19030504,0.20733513,0.20845373,0.2201718,0.2133241,0.20625034,0.2137746,0.23821816,0.2317665,0.2386734,0.22764537,0.22914258,0.21420985,0.22878934,0.21589361,0.24171045
