0.09,0.1082496,0.0834317,0.099761985,0.088595286,0.093330905,0.105,0.10452815,0.10467837,0.088460214,0.07999951,0.09219605,0.085,0.07285492,0.09374115,0.09762097,0.08886532,0.09597883,0.095,0.11133475,0.111761615,0.08451648,0.092695214,0.105225764,0.095,0.089325145,0.096811466,0.09921157,0.081581794,0.06907083,0.07,0.069146946,0.08365295,0.10851375,0.10573994,0.10038301,0.1,0.08610784,0.09047972,0.10038086,0.120896235,0.14166816,0.145,0.17545706,0.17230901,0.15205997,0.16496395,0.15804715,0.165,0.16710392,0.16285461,0.16033083,0.13812302,0.14711297,0.125,0.114168584,0.13487321,0.101751104,0.09815795,0.07677017,0.065,0.096981,0.06721867,0.08880281,0.105082415,0.07218881,0.09,0.07513186,0.06915806,0.0730124,0.055235106,0.06042189,0.045,0.04756845,0.044326175,0.03120627,0.054784883,0.052684814,0.055,0.060642954,0.0713381,0.122206986,0.14297743,0.16312073,0.23,0.29925945,0.3370094,0.3329589,0.29778928,0.24405634,0.195,0.11630136,-0.056794792,-0.299651,-0.5160889,-0.61399233,-0.61,-0.57509625,-0.5038303,-0.38487765,-0.2635051,-0.15309371,-0.055,-0.001166787,0.025296684,0.049639832,0.0749944,0.084038004,0.07,0.077237435,0.08007505,0.072254606,0.0864168,0.089670815,0.095,0.09371331,0.07363489,0.07185221,0.08922297,0.120676726,0.12,0.092045024,0.09771526,0.11119484,0.10661799,0.09955621,0.11,0.12420074,0.12455161,0.12656519,0.121495545,0.114598334,0.12,0.12863907,0.13189702,0.12460325,0.11984599,0.13426197,0.15,0.13802345,0.13660355,0.15578961,0.14992912,0.14591472,0.15,0.13755107,0.13588639,0.16521455,0.18042491,0.16172189,0.165,0.1521052,0.13038716,0.16450053,0.16954513,0.15494265,0.17,0.1750101,0.17386638,0.15926331,0.14846452,0.15755741,0.17,0.16785854,0.15917633,0.17871052,0.1701718,0.14967889,0.17,0.1679466,0.16382764,0.17763497,0.16884868,0.16026248,0.175,0.18525943,0.18377902,0.18327677,0.15877645,0.16707237,0.2,0.17838491,0.18590102,0.1905009,0.16236314,0.17903325,0.165,0.1544764,0.18189003,0.16403055,0.15980437,0.18329397,0.18,0.16677745,0.16112664,0.1565097,0.14587335,0.14632946,0.15,0.13770728,0.13150841,0.14373264,0.14971268,0.1374835,0.14,0.15472333,0.14556755,0.13894902,0.14760454,0.13646618,0.13,0.13972244,0.13575087,0.1373496,0.1268601,0.10163898,0.105,0.113800734,0.12198436,0.124325216,0.11930079,0.12633081,0.125,0.1217909,0.103415914,0.09549895,0.11737189,0.10610455,0.11,0.12310176,0.09959597,0.09986376,0.115929835,0.12609066,0.115,0.099517554,0.10760591,0.112965725,0.12359657,0.10278022,0.09,0.13420525,0.13120733,0.09412376,0.08466805,0.09910646,0.11,0.099809185,0.11148716,0.10753722,0.09324703,0.10717743,0.095,0.08402494,0.0876061,0.08003576,0.08291295,0.09127624,0.09,0.076645955,0.079161525,0.0902712,0.0906456,0.102586165,0.1,0.08933448,0.097763926,0.09967621,0.10200989,0.104792036,0.105,0.11435612,0.108988896,0.10604927,0.12080649,0.12535101,0.13,0.11643223,0.087554716,0.09146803,0.10309476,0.10519479,0.105,0.10893628,0.10462164,0.0822425,0.094275765,0.10367698,0.095,0.10516896,0.09361622,0.094739914,0.096672595,0.08537767,0.11,0.11710058,0.10954335,0.11156933,0.11999691,0.1305447,0.125,0.12976444,0.12042508,0.116699785,0.12648517,0.11997013,0.14,0.1396216,0.122985564,0.13158533,0.13586956,0.13313979,0.115,0.110237174,0.100284986,0.09982187,0.11873812,0.09467118,0.105,0.11906477,0.09857692,0.10847817,0.108197734,0.11820059,0.11,0.0839511,0.1038103,0.10742671,0.09706385,0.09510321,0.105,0.10845341,0.09020326,0.0973804,0.095691845,0.08376369,0.08,0.07797164,0.09183185,0.095125146,0.09505552,0.08849283,0.1,0.11764015,0.09225398,0.08459661,0.082930654,0.0955463,0.11,0.073973544,0.08491946,0.11286926,0.1313962,0.17001936,0.155,0.14604041,0.16447121,0.16241217,0.16983886,0.18225265,0.19,0.18183903,0.18388937,0.19063516,0.16226746,0.15684257,0.155,0.13163556,0.13211365,0.11941358,0.122313805,0.1470887,0.13,0.13124894,0.13585848,0.10917367,0.117870465,0.12280291,0.105,0.0973016,0.080918536,0.07337976,0.08640456,0.094925374,0.08,0.072537795,0.087982304,0.08646555,0.08935055,0.10823606,0.115,0.12880395,0.16994612,0.21816164,0.26513568,0.31955987,0.335,0.32174093,0.30296192,0.2297997,0.15325138,0.073739424,-0.095,-0.33543903,-0.55557764,-0.64298946,-0.6079644,-0.5412082,-0.465,-0.3532501,-0.2086261,-0.10779068,-0.044114657,0.029544512,0.085,0.101647966,0.087023936,0.094527006,0.11549552,0.107224226,0.1,0.09918553,0.11141465,0.12884977,0.12959765,0.1371509,0.135,0.11227774,0.11890894,0.14155154,0.13541186,0.13710862,0.14,0.12910885,0.14411774,0.1509321,0.15245318,0.15254906,0.13,0.13251774,0.13887373,0.1486911,0.15995507,0.12716323,0.115,0.13635056,0.15084256,0.15774156,0.15260601,0.15692244,0.16,0.15017046,0.1629674,0.19037955,0.19292964,0.19107243,0.2,0.19970445,0.20473112,0.19805,0.19073582,0.20763066,0.195,0.18238829,0.19938222,0.19005825,0.1807266,0.20569967,0.215,0.20123178,0.20457906,0.21822773,0.22709547,0.21643429,0.21,0.22504443,0.21067248,0.21197854,0.23788051,0.23276584,0.23,0.2299522,0.23392913,0.2303801,0.22719216,0.24106312,0.225,0.22680497,0.22884475,0.2125531,0.22580896,0.21674742,0.22,0.22041003,0.19531487,0.1997633,0.1869838,0.18078111,0.175,0.16649723,0.18668437,0.1709113,0.1715173,0.1838012,0.16,0.1547189,0.15334609,0.16609453,0.1838932,0.17126602,0.165,0.18958703,0.19754995,0.16238098,0.15914008,0.155775,0.14,0.17397279,0.18315862,0.18344587,0.18711583,0.16000427,0.155,0.1584432,0.17234112,0.16355847,0.14215778,0.17108327,0.165,0.15906571,0.18925287,0.17756629,0.1619288,0.16653319,0.17,0.15333577,0.15267436,0.15881915,0.11786772,0.12774935,0.15,0.13360995,0.15121268,0.12994318,0.120460965,0.14632413,0.12,0.12850775,0.14350267,0.12179313,0.121944115,0.1190166,0.125,0.1234852,0.113360375,0.13323423,0.11558332,0.08212217,0.095,0.096845865,0.0991968,0.1254175,0.115406,0.09286408,0.1,0.10945017,0.10798996,0.10076429,0.10092002,0.099063806,0.1,0.1024421,0.088412166,0.10388379,0.113159284,0.099056415,0.11,0.105919585,0.11414617,0.11619652,0.106281936,0.14162575,0.13,0.115053564,0.14106211,0.12617081,0.113007724,0.116328076,0.13,0.12115265,0.10209791,0.12772146,0.12273776,0.1245512,0.145,0.13080719,0.1406514,0.14100564,0.13673422,0.14464022,0.13,0.13658783,0.14627963,0.14258136,0.13658322,0.13009313,0.14,0.13734382,0.12772334,0.119062066,0.11842585,0.14530016,0.145,0.12562199,0.12970576,0.12460196,0.121418834,0.1311476,0.125,0.120043844,0.11542955,0.10361732,0.10914607,0.11524235,0.115,0.111872986,0.10574441,0.122713126,0.1264898,0.10780401,0.12,0.123956524,0.10456468,0.114735484,0.11542381,0.09881515,0.115,0.12183124,0.11466192,0.11435066,0.108423755,0.11738353,0.12,0.12677434,0.13471809,0.12432886,0.13530418,0.11816903,0.1,0.118681364,0.11529589,0.12029056,0.1129978,0.10016406,0.115,0.13055308,0.1526448,0.15125793,0.16600074,0.1847972,0.17,0.18650953,0.1860649,0.18290183,0.21057957,0.21348211,0.205,0.2071546,0.22157158,0.20540833,0.1858105,0.17584042,0.155,0.18393043,0.18488495,0.15458234,0.15828758,0.1685627,0.195,0.18147494,0.1631171,0.16337875,0.15465789,0.18025886,0.175,0.16360009,0.16553485,0.1539619,0.15329616,0.13057323,0.135,0.13050987,0.116586074,0.13489814,0.11579602,0.13985698,0.17,0.17681234,0.23116508,0.27363423,0.34148043,0.38810065,0.39,0.40321732,0.35595578,0.28189275,0.20678602,0.08469186,-0.125,-0.37004498,-0.52509654,-0.58479756,-0.5416165,-0.45971262,-0.365,-0.22439085,-0.12752405,-0.038165614,0.039363474,0.085989766,0.145,0.14750554,0.1541554,0.16719507,0.14016703,0.15670459,0.175,0.16586815,0.16731662,0.17370063,0.17372166,0.1699985,0.175,0.1716019,0.16414616,0.15073124,0.14843363,0.17559184,0.19,0.19841763,0.19902325,0.1906152,0.18928446,0.18449327,0.19,0.18730943,0.17926462,0.1826304,0.18713287,0.18901615,0.175,0.18413661,0.21058574,0.21733452,0.22192456,0.22647752,0.24,0.2341407,0.22307624,0.24598128,0.2548795,0.24032086,0.2,0.18392058,0.22550026,0.23293866,0.23618557,0.25651592,0.24,0.22989124,0.22926123,0.23822421,0.25243738,0.23667064,0.25,0.27985433,0.26179025,0.23992628,0.24287945,0.24337046,0.225,0.22913419,0.2574125,0.2541545,0.25185147,0.25367653,0.245,0.2571322,0.26639187,0.28033996,0.29070753,0.2770764,0.27,0.26180714,0.25620237,0.25169364,0.25217953,0.26119062,0.265,0.27179155,0.24900901,0.24262846,0.25598016,0.22991411,0.235,0.23137762,0.20704901,0.2197493,0.21573694,0.21674784,0.215,0.20433432,0.20832455,0.1978951,0.20661741,0.21492893,0.22,0.23196849,0.2092934,0.19506806,0.19416788,0.19673015,0.205,0.19686738,0.19126903,0.18797088,0.19516426,0.21367994,0.23,0.22919048,0.20474906,0.20224379,0.20242544,0.19510244,0.205,0.20173872,0.19850829,0.19952138,0.19258466,0.1966689,0.2,0.18784972,0.1792922,0.18133125,0.1797462,0.19455935,0.21,0.20887956,0.21861085,0.2152116,0.21023574,0.21569072,0.22,0.22690842,0.206491,0.20435223,0.21490824,0.19019249,0.195,0.20699896,0.19272743,0.18948218,0.1785526,0.1711276,0.195,0.20723213,0.18997274,0.1837679,0.18576911,0.19984062,0.22,0.19672929,0.17766593,0.18336022,0.17645352,0.17564645,0.18,0.1926783,0.19223918,0.17863542,0.19168065,0.18613926,0.175,0.1892444,0.18024874,0.17781623,0.19617142,0.19356775,0.2,0.21464437,0.21492302,0.23257557,0.22496445,0.19089007,0.2,0.19474833,0.18504813,0.21103844,0.20099074,0.19067764,0.19,0.17035122,0.18405452,0.1853954,0.1757976,0.2066477,0.21,0.18721431,0.18406951,0.18561138,0.18305026,0.17314002,0.175,0.1809396,0.17624529,0.19343215,0.20593336,0.19211811,0.19,0.19518332,0.18944624,0.17973511,0.18338875,0.19028135,0.185,0.18113217,0.17079909,0.15854333,0.15344708,0.15716751,0.175,0.18787251,0.1968627,0.18148112,0.16078481,0.1727599,0.175,0.19089128,0.18967898,0.16132522,0.19097596,0.18888447,0.17,0.194026,0.18261616,0.19049902,0.19544324,0.17321515,0.19,0.19156371,0.19445516,0.199594,0.18772829,0.21086365,0.215,0.19659974,0.18849981,0.16234225,0.14926039,0.1713735,0.205,0.21986306,0.21711537,0.21115881,0.21437073,0.24004415,0.245,0.2462759,0.26052862,0.23748673,0.23731586,0.2703505,0.28,0.27809685,0.25155833,0.23334093,0.23344147,0.21710205,0.22,0.21480788,0.1947604,0.2002828,0.19619328,0.19729927,0.205,0.1805797,0.1642698,0.16773675,0.17201932,0.1742476,0.16,0.16075274,0.18259977,0.17891237,0.16677652,0.1641854,0.155,0.15296596,0.1721851,0.20388831,0.21757038,0.22955927,0.26,0.27529022,0.32501626,0.40805802,0.44228414,0.44335085,0.41,0.35524932,0.29592687,0.18941142,0.026770422,-0.21208803,-0.435,-0.52085245,-0.52141666,-0.47994208,-0.39742398,-0.27934355,-0.155,-0.046215322,0.048051186,0.08551527,0.11830671,0.17393799,0.185,0.1725587,0.16097242,0.16510439,0.16772097,0.15332708,0.165,0.17869194,0.18687958,0.18811148,0.177024,0.1881504,0.19,0.18348573,0.20016752,0.22213095,0.21995197,0.20397799,0.225,0.23013975,0.20752448,0.22242486,0.21696971,0.19968258,0.215,0.21211565,0.21226023,0.2322329,0.24368842,0.2505978,0.245,0.25125355,0.2614906,0.2412515,0.24809763,0.25809392,0.235,0.25287795,0.27211478,0.24845517,0.24182244,0.25828534,0.265,0.26741484,0.283146,0.27781728,0.27182668,0.28570554,0.26,0.2574172,0.29603484,0.29107288,0.27697858,0.27352148,0.26,0.25418878,0.26199692,0.26481062,0.2575616,0.26115268,0.255,0.24016364,0.24912766,0.25973445,0.25950974,0.26051074,0.265,0.27295706,0.2828689,0.28495944,0.28809437,0.30215746,0.295,0.28037503,0.28356767,0.28537914,0.28359532,0.27234897,0.27,0.27988705,0.27350342,0.2684957,0.27145103,0.27566212,0.27,0.25952494,0.266353,0.25190356,0.22833356,0.2240955,0.22,0.24818732,0.26006308,0.23854958,0.25260165,0.23863286,0.23,0.2599224,0.24021487,0.24756986,0.26563582,0.24880923,0.27,0.26142028,0.24221744,0.24672592,0.23830998,0.2600607,0.25,0.22300278,0.24805097,0.24864556,0.21783906,0.20468241,0.215,0.22067209,0.21845925,0.22281688,0.22825836,0.24184482,0.225,0.19949396,0.21655908,0.22922045,0.220503,0.215324,0.225,0.2221232,0.22372861,0.25023994,0.23018453,0.2039778,0.22,0.2214455,0.22244701,0.24349228,0.24726309,0.22566533,0.22,0.22554737,0.2204376,0.22240488,0.22576815,0.22404665,0.215,0.22095278,0.23663603,0.22742376,0.22768056,0.2282679,0.215,0.21414131,0.22038186,0.23240925,0.23290522,0.22311425,0.215,0.21738613,0.22788854,0.21227358,0.19682424,0.20126235,0.205,0.20914721,0.20957646,0.19226962,0.17806382,0.1931063,0.185,0.17631903,0.19759175,0.19987516,0.22152941,0.21904601,0.185,0.19366357,0.183304,0.17425027,0.19140525,0.19500959,0.195,0.19736429,0.21366404,0.20546058,0.19528192,0.20529911,0.19,0.19969854,0.21455848,0.20139565,0.20162812,0.19824953,0.19,0.1922778,0.21260573,0.21901533,0.19653529,0.20425975,0.215,0.20453691,0.21691167,0.2088362,0.1732497,0.18648474,0.205,0.1830746,0.18398646,0.1928489,0.19099447,0.20864795,0.205,0.18898119,0.2066281,0.21885431,0.21284185,0.21604057,0.215,0.20714296,0.19021028,0.1689508,0.17582656,0.18552198,0.185,0.18214084,0.17292601,0.18330956,0.17837098,0.15760304,0.16,0.15658903,0.15137853,0.14631301,0.14839073,0.16174014,0.16,0.16043054,0.14832589,0.13680987,0.16310787,0.18109939,0.18,0.1876962,0.19570787,0.19112746,0.19367166,0.21467538,0.235,0.25246426,0.25746214,0.2521742,0.25940692,0.26444936,0.255,0.26842314,0.2938922,0.26991615,0.25731358,0.2759201,0.245,0.23505878,0.25062135,0.21335994,0.20378128,0.21381384,0.195,0.20697583,0.201391,0.18725652,0.22775908,0.22340222,0.2,0.21848187,0.20927893,0.18673722,0.15809684,0.16039075,0.185,0.15512487,0.15404037,0.15280528,0.13237974,0.16005634,0.145,0.14571972,0.19182546,0.20952468,0.25921646,0.29966164,0.33,0.3866325,0.41354915,0.4286969,0.41176543,0.36711106,0.33,0.2418452,0.077476166,-0.15864885,-0.38586715,-0.50527185,-0.53,-0.4649917,-0.3723151,-0.30268142,-0.18614085,-0.05021401,0.05,0.10512062,0.12586209,0.16546293,0.1673826,0.15178774,0.19,0.18609224,0.17174534,0.1921734,0.18311279,0.17502002,0.18,0.19959685,0.21719156,0.20795582,0.20508927,0.20578763,0.225,0.23379903,0.21365903,0.22895156,0.23947227,0.22874103,0.23,0.22561972,0.22785252,0.22933577,0.22279261,0.227075,0.245,0.2633704,0.2635364,0.25429386,0.24917915,0.25752357,0.265,0.26095375,0.25272334,0.23253012,0.23587741,0.2512333,0.25,0.26312494,0.25806743,0.24446324,0.25545222,0.25998938,0.26,0.25961402,0.26601103,0.27338305,0.27752596,0.28609225,0.285,0.28564796,0.27685818,0.28396803,0.30536968,0.29911676,0.315,0.30655766,0.29229248,0.32348552,0.29809564,0.28947693,0.315,0.30849203,0.32747877,0.31508577,0.29066238,0.30165824,0.29,0.27949288,0.2878901,0.30741405,0.31499833,0.30925328,0.305,0.2949371,0.3029233,0.2991927,0.28725535,0.2827926,0.265,0.26795888,0.2717637,0.26738083,0.2500684,0.23635913,0.265,0.25220293,0.23373933,0.24579738,0.22560857,0.235769,0.255,0.2461669,0.2426079,0.2366117,0.24519579,0.24916694,0.245,0.25315735,0.2579776,0.24345504,0.22699001,0.24387492,0.235,0.22116175,0.24293782,0.2214276,0.21316195,0.21713565,0.195,0.22254738,0.2394733,0.23246056,0.24588585,0.24989061,0.245,0.23067531,0.24237594,0.24709897,0.22283901,0.24848449,0.27,0.24866483,0.24380036,0.26021406,0.25055018,0.22209829,0.24,0.24115472,0.2163808,0.23558979,0.24397722,0.23268251,0.22,0.22174826,0.23130254,0.21052402,0.20703176,0.20175712,0.195,0.2183515,0.20585726,0.19004777,0.2091192,0.2208082,0.22,0.22349755,0.2276388,0.2185502,0.21502085,0.21451133,0.215,0.21965846,0.22250214,0.22407067,0.19544968,0.17373438,0.18,0.19514158,0.21538603,0.20837013,0.21778764,0.22167635,0.195,0.1984565,0.19919789,0.20853193,0.21165563,0.2006612,0.225,0.21971583,0.20911205,0.22150937,0.2063036,0.19429533,0.195,0.19494906,0.19697823,0.2063657,0.2090065,0.20516005,0.21,0.20166479,0.20569329,0.22761331,0.22539264,0.20672168,0.205,0.21511771,0.20765889,0.20678012,0.20939197,0.20465891,0.205,0.19612098,0.19769533,0.1990569,0.19354437,0.19593237,0.205,0.20113562,0.16699758,0.18388285,0.20594381,0.18129303,0.19,0.19112767,0.19786014,0.20396328,0.18427117,0.19899836,0.195,0.1835451,0.19513048,0.20847663,0.21290365,0.19170682,0.205,0.21039605,0.18426535,0.19951811,0.21971934,0.21195094,0.2,0.20507783,0.19208397,0.18968168,0.2198211,0.20421167,0.195,0.19403572,0.17926122,0.20032106,0.20040798,0.19673625,0.205,0.19474468,0.21070728,0.22216563,0.2009537,0.20393561,0.23,0.24308373,0.2528878,0.25564682,0.26681268,0.27306527,0.255,0.27867126,0.28615823,0.2643268,0.27577946,0.2736867,0.275,0.24909475,0.22089793,0.229508,0.20085181,0.19855213,0.21,0.21902107,0.24157068,0.21502966,0.21960208,0.24098924,0.235,0.2437902,0.24273364,0.2347333,0.21790288,0.21660188,0.215,0.20014194,0.20106532,0.18100218,0.1897469,0.2034711,0.185,0.20508863,0.21654935,0.24235901,0.3007818,0.31588492,0.345,0.4051721,0.44226533,0.45143276,0.41553652,0.36658213,0.315,0.193204,0.007688567,-0.2222144,-0.4219642,-0.49670067,-0.5,-0.4429223,-0.35216323,-0.24366955,-0.087645836,0.014724807,0.09,0.15529044,0.16431305,0.18629476,0.20578861,0.22382566,0.22,0.20281896,0.22020537,0.21042164,0.21875092,0.2274718,0.205,0.21973222,0.24067463,0.24445559,0.21540707,0.20140702,0.22,0.23523945,0.25620967,0.24504024,0.25391054,0.2625833,0.245,0.25531045,0.23988959,0.23933582,0.23003292,0.21165694,0.255,0.2708437,0.2723764,0.2731335,0.27267855,0.27884015,0.265,0.28601363,0.28312942,0.28057355,0.3163895,0.2987854,0.295,0.31455046,0.31054652,0.31259757,0.31538102,0.31519163,0.325,0.34742674,0.34655038,0.33148864,0.32029334,0.31605694,0.33,0.33057818,0.33316785,0.33160248,0.3244861,0.33810163,0.345,0.33871073,0.31716612,0.32764778,0.34745526,0.32555744,0.325,0.3188036,0.3095538,0.32488164,0.33306265,0.34805462,0.35,0.3413779,0.33489272,0.34322608,0.35679904,0.3348382,0.335,0.35116562,0.33351815,0.3187564,0.32328326,0.3307348,0.325,0.31199405,0.30769584,0.3134222,0.30371848,0.2953183,0.3,0.29402968,0.307699,0.2990238,0.2849496,0.3013225,0.28,0.28086984,0.2874225,0.27611652,0.3003932,0.2884977,0.26,0.25465938,0.26323155,0.27488708,0.2660493,0.2728803,0.28,0.27241397,0.25649273,0.2469935,0.24979736,0.23790284,0.245,0.25473833,0.2580002,0.25822937,0.25887525,0.28384385,0.275,0.27274394,0.26807168,0.24396211,0.2649874,0.25509244,0.255,0.27153227,0.26462972,0.27725983,0.2501055,0.25108343,0.28,0.2743547,0.28449595,0.2780576,0.27860495,0.2844834,0.28,0.2741998,0.25216642,0.25422382,0.25225613,0.25815976,0.26,0.23580995,0.24608228,0.24706483,0.24821855,0.24694416,0.23,0.23965214,0.22706851,0.21951923,0.22644411,0.23336115,0.255,0.24726515,0.24934258,0.25385788,0.2310501,0.232764,0.245,0.24158637,0.23552853,0.2340938,0.22633225,0.22632372,0.23,0.22403511,0.23844035,0.24640109,0.23546356,0.22911695,0.23,0.2430412,0.24403381,0.23528732,0.23615909,0.23319916,0.22,0.2262166,0.23624283,0.21803163,0.23024173,0.24361175,0.22,0.21840228,0.22127666,0.21985462,0.21821234,0.21604006,0.235,0.25382662,0.24636573,0.21922874,0.23179393,0.26373297,0.26,0.2516357,0.24181616,0.24285808,0.24160951,0.22877255,0.235,0.23182608,0.22655414,0.21670493,0.20205617,0.21987638,0.225,0.20256233,0.205746,0.22585656,0.21923962,0.20951124,0.21,0.21564431,0.23940074,0.22383797,0.20234635,0.21656378,0.195,0.18944742,0.21555279,0.20291065,0.19837645,0.2173461,0.205,0.1966311,0.21717724,0.21808872,0.23932105,0.27303633,0.26,0.26519972,0.2795721,0.26535767,0.27054843,0.27984342,0.27,0.28026298,0.29494226,0.27666143,0.27056724,0.2599901,0.23,0.22105479,0.21865354,0.24100578,0.23497573,0.21685517,0.255,0.23841514,0.22241175,0.25033858,0.23640145,0.2378492,0.24,0.21851714,0.20454407,0.19438435,0.18637975,0.18023983,0.195,0.19754395,0.18630782,0.18415974,0.189738,0.21534964,0.235,0.2671997,0.29705188,0.3281192,0.39970317,0.43835425,0.445,0.4288551,0.37599337,0.32538086,0.2581629,0.117119245,-0.14,-0.37144685,-0.46920788,-0.5062486,-0.4596122,-0.36050755,-0.26,-0.13072272,-0.018722607,0.060585633,0.13360448,0.18755673,0.195,0.1842689,0.197811,0.20937051,0.19984747,0.19594012,0.205,0.2040637,0.22094063,0.22972834,0.20938882,0.23866683,0.25,0.2286197,0.24949723,0.24952352,0.23907597,0.25334966,0.26,0.24753599,0.24511935,0.2536597,0.24996048,0.2767728,0.28,0.25884232,0.27164125,0.25737026,0.2515575,0.24647729,0.235,0.24963862,0.24329767,0.2576816,0.26056466,0.2513145,0.27,0.2693286,0.27978712,0.26822588,0.26587367,0.28503278,0.26,0.27393734,0.28371114,0.26765466,0.28177407,0.2845116,0.285,0.28030676,0.28905267,0.29423472,0.28264803,0.2989791,0.305,0.30904004,0.30272567,0.29129314,0.30581015,0.30413133,0.315,0.31135643,0.2815344,0.2892256,0.30458355,0.31062895,0.305,0.29898956,0.30919236,0.32378888,0.3309051,0.3313889,0.35,0.341543,0.31530464,0.31907174,0.3071544,0.29437816,0.3,0.30881882,0.30467093,0.27867022,0.26932964,0.2693545,0.265,0.26535186,0.25753188,0.23834077,0.23957485,0.24915156,0.225,0.2326697,0.263143,0.2606894,0.24946362,0.23338085,0.25,0.2502085,0.23781884,0.27165478,0.25513715,0.22898094,0.24,0.24495478,0.23555124,0.21618474,0.24560674,0.24352776,0.22,0.24758226,0.23956858,0.24145946,0.24798942,0.23338953,0.23,0.21456231,0.2350562,0.2448455,0.23213567,0.2349677,0.235,0.25800735,0.24518113,0.23732834,0.26156524,0.24606915,0.25,0.25272453,0.24558774,0.2553456,0.24294075,0.23489313,0.24,0.2533864,0.24611165,0.22432582,0.23905808,0.25016716,0.245,0.22979511,0.2101412,0.21870431,0.23480733,0.23371701,0.23,0.23186536,0.21250054,0.20822065,0.23319857,0.22002831,0.215,0.23388194,0.2318653,0.22592859,0.20669207,0.21632065,0.245,0.2205921,0.2173845,0.24372734,0.23229896,0.2253102,0.22,0.20501243,0.2150482,0.22038974,0.2116954,0.21046579,0.215,0.215454,0.21855995,0.23463143,0.23033652,0.2257842,0.225,0.21315457,0.2350438,0.22870718,0.20579924,0.21606964,0.2,0.20535551,0.21580443,0.20531982,0.22331701,0.21489802,0.195,0.20668577,0.21475132,0.19734418,0.19341746,0.21203913,0.2,0.20170519,0.20687437,0.19356936,0.20492804,0.18953593,0.18,0.19077581,0.18367688,0.19173199,0.19476548,0.20280005,0.205,0.18287945,0.18036129,0.19307227,0.20273085,0.20625944,0.22,0.20715652,0.18326774,0.20877625,0.20933844,0.20098692,0.205,0.18959896,0.20766576,0.21007837,0.18993968,0.20426562,0.215,0.21143472,0.20257185,0.20099786,0.2052318,0.191412,0.185,0.19497569,0.18296513,0.17289533,0.19438884,0.19104353,0.175,0.18774913,0.18819737,0.18840781,0.21849065,0.22802371,0.21,0.22832943,0.2483733,0.2381587,0.24464679,0.25057492,0.26,0.2587989,0.24543737,0.2606058,0.25419855,0.25889674,0.26,0.21814205,0.23069721,0.23320219,0.1995695,0.20884697,0.215,0.21039374,0.20501442,0.1940154,0.19947472,0.21160607,0.21,0.20858191,0.21560937,0.20999439,0.20245062,0.19287409,0.195,0.2102052,0.19714658,0.1852648,0.18581557,0.19921541,0.215,0.2132846,0.2334798,0.2628531,0.31454682,0.3594577,0.37,0.42714623,0.46372983,0.4499893,0.42866543,0.37889993,0.315,0.17494372,-0.04245953,-0.27531454,-0.47049084,-0.5165712,-0.46,-0.39152095,-0.29336447,-0.16763948,-0.042026244,0.04978979,0.105,0.14740051,0.17854637,0.19017191,0.19829144,0.19115703,0.175,0.19638108,0.1891471,0.16846053,0.20886415,0.20877965,0.18,0.2000488,0.21374474,0.21983363,0.22438186,0.213437,0.225,0.24066353,0.22918785,0.22629322,0.24232328,0.25711703,0.26,0.2634628,0.26343557,0.24139863,0.2593703,0.28507385,0.26,0.27390593,0.28204724,0.25709352,0.27514184,0.27005568,0.255,0.28010932,0.29572454,0.31027305,0.32127562,0.30625725,0.3,0.30571547,0.29693073,0.30012655,0.3143903,0.31448,0.31,0.29271045,0.29517102,0.31479347,0.3029018,0.30231875,0.31,0.29698777,0.2941395,0.29431412,0.2994435,0.3178589,0.31,0.2972293,0.3227024,0.32500914,0.30360302,0.30605784,0.305,0.31660935,0.32127172,0.30918908,0.32070416,0.31778562,0.315,0.3131289,0.30124304,0.31609547,0.31714472,0.31690004,0.325,0.31244496,0.3053861,0.3084776,0.3284321,0.31910023,0.3,0.33125356,0.32016176,0.29509288,0.3006873,0.28127825,0.295,0.31301114,0.2880722,0.2743184,0.266867,0.26527566,0.26,0.25684255,0.27909997,0.28338373,0.27044183,0.2718907,0.29,0.2973107,0.2823234,0.28285986,0.28331712,0.28042334,0.28,0.26226193,0.26417002,0.27374357,0.26663604,0.26577905,0.275,0.28478685,0.279499,0.26688194,0.24667929,0.24914862,0.275,0.27149802,0.27081242,0.26010817,0.2512996,0.26582143,0.245,0.2497333,0.26197258,0.24752745,0.26228097,0.25689796,0.26,0.27655348,0.25940195,0.25765786,0.26989606,0.28207317,0.28,0.2703223,0.2684674,0.26078323,0.2709816,0.2735876,0.27,0.27614427,0.26559293,0.27268037,0.279598,0.27599737,0.295,0.29785743,0.2831333,0.27869323,0.28242508,0.29163003,0.29,0.27663824,0.27831447,0.2945335,0.28909272,0.27378994,0.285,0.28418392,0.26506087,0.27195254,0.27184126,0.2650904,0.265,0.24666083,0.25408655,0.2556452,0.23395433,0.24992466,0.26,0.25949225,0.2574818,0.25864613,0.27305904,0.24874617,0.25,0.27172711,0.25324246,0.2538933,0.25149027,0.2523957,0.26,0.24545093,0.2557921,0.2547707,0.2450868,0.27120137,0.285,0.27305004,0.26122662,0.26080316,0.25691783,0.24969946,0.26,0.2665749,0.25358823,0.25352538,0.27149156,0.26704052,0.255,0.25192422,0.2386328,0.23662704,0.25215346,0.2668532,0.26,0.24496096,0.25285774,0.25082645,0.24540117,0.25720352,0.26,0.26433778,0.2579829,0.24213131,0.24903233,0.24134749,0.235,0.25797784,0.25116816,0.24655253,0.25535485,0.2364438,0.24,0.2343028,0.22963567,0.27115995,0.2633675,0.23875323,0.25,0.25418717,0.26017693,0.25334266,0.2418231,0.24007916,0.25,0.26564252,0.25059316,0.24863103,0.26437864,0.25774795,0.25,0.2450118,0.24921373,0.24490933,0.24379809,0.26872277,0.255,0.25252226,0.28941825,0.2777157,0.29828215,0.34324592,0.315,0.3173839,0.35023347,0.3606896,0.37309557,0.3547676,0.35,0.37225062,0.37763608,0.36512068,0.34111765,0.32676852,0.3,0.3038531,0.3205436,0.28983682,0.30185863,0.32032484,0.32,0.32399282,0.29568022,0.29430208,0.30028877,0.30799615,0.305,0.27167574,0.27788794,0.25291976,0.23848902,0.2606939,0.235,0.25210628,0.27340502,0.268602,0.27601588,0.26350182,0.29,0.32924643,0.3667921,0.42308372,0.45771596,0.51449096,0.58,0.5868385,0.5353369,0.4778678,0.42609334,0.31640306,0.125,-0.11538861,-0.29320648,-0.35944784,-0.36659876,-0.31582397,-0.23,-0.10525158,0.040298313,0.13685177,0.21914043,0.2909859,0.32,0.33282423,0.34013465,0.33826935,0.34539002,0.3618077,0.35,0.34614104,0.36302528,0.3468476,0.34285513,0.3493001,0.34,0.34496433,0.33520934,0.3313225,0.3436071,0.33826727,0.335,0.3348311,0.3363845,0.32876325,0.32820135,0.3408149,0.33,0.34392568,0.36102998,0.34047788,0.325956,0.32746315,0.35,0.33270398,0.31681132,0.34816703,0.3253815,0.3255407,0.34,0.3139962,0.34556106,0.36155322,0.34592888,0.35134694,0.355,0.35677186,0.34700128,0.3635556,0.36413532,0.3508645,0.37,0.35411453,0.3527523,0.3608129,0.3453146,0.351152,0.34,0.33464396,0.32499644,0.31008166,0.3378982,0.33483675,0.31,0.32135448,0.3295696,0.31594357,0.32169104,0.34210896,0.33,0.32287806,0.33400702,0.33403084,0.33645663,0.33352783,0.33,0.34581062,0.36017087,0.35872087,0.3732394,0.37698692,0.35,0.3528921,0.34888533,0.33499062,0.35228032,0.33888763,0.315,0.3228018,0.32697162,0.32397893,0.3370409,0.34388384,0.33,0.3374309,0.33767748,0.32105723,0.31964302,0.3068849,0.305,0.31079277,0.30750638,0.3144242,0.30120903,0.2838943,0.295,0.29440752,0.2675415,0.25767627,0.25976703,0.2541768,0.255,0.2577328,0.27714807,0.28655306,0.27856833,0.2938798,0.305,0.31751692,0.31923756,0.31635416,0.33876407,0.33864316,0.35,0.36955902,0.37222773,0.39634869,0.40381455,0.39305657,0.39,0.41304675,0.43309337,0.40347075,0.3889626,0.38887402,0.385,0.38410094,0.3552499,0.3637267,0.39934048,0.37070516,0.355,0.39883393,0.40325174,0.3916567,0.40429783,0.39829892,0.4,0.38569242,0.3681325,0.3680072,0.33589703,0.3326704,0.33,0.3024746,0.29352972,0.26901898,0.27027306,0.27205798,0.25,0.24196051,0.23304221,0.24311025,0.24020787,0.22892316,0.22,0.21506555,0.24887675,0.24657758,0.23355052,0.22528732,0.2,0.22862348,0.23249537,0.20940754,0.21979336,0.21225785,0.215,0.23731515,0.23799679,0.21575807,0.21376489,0.22509758,0.21,0.2160287,0.22547022,0.2108215,0.21304902,0.21371837,0.205,0.20761612,0.22351885,0.23418827,0.22446826,0.21373464,0.215,0.22753218,0.22904406,0.20320128,0.21102169,0.24972934,0.23,0.21521445,0.24094322,0.22534545,0.21692386,0.23269694,0.245,0.24903607,0.22234207,0.23683032,0.2652581,0.23705623,0.21,0.21194904,0.22809295,0.22417666,0.2108925,0.20314075,0.2,0.21364607,0.21366282,0.22292605,0.21698971,0.19313213,0.205,0.19720076,0.20470504,0.21679713,0.19008169,0.1988107,0.195,0.18211001,0.20436046,0.21081015,0.21005474,0.20251633,0.2,0.22195105,0.22179808,0.21108226,0.22774749,0.21983352,0.2,0.21767002,0.21350826,0.22170605,0.26697606,0.28053966,0.285,0.27778777,0.27406877,0.28667334,0.2838809,0.2993512,0.305,0.2982836,0.30998132,0.30240402,0.29297623,0.2798398,0.24,0.22668733,0.24721251,0.2447701,0.2427433,0.25631607,0.245,0.2322819,0.21557349,0.21675417,0.25303632,0.23675352,0.205,0.21735583,0.21715903,0.20095687,0.20295726,0.20301506,0.185,0.18038963,0.17061177,0.16778424,0.19626999,0.1984363,0.21,0.25251877,0.287491,0.3386414,0.39700857,0.43508407,0.435,0.3995955,0.3468985,0.2947393,0.22420423,0.058262367,-0.18,-0.40385634,-0.5346426,-0.54427147,-0.49619168,-0.40296108,-0.29,-0.1754764,-0.050358377,0.03724921,0.10872255,0.15422015,0.155,0.17796749,0.20345348,0.20367275,0.20776415,0.20854272,0.19,0.18265407,0.19756365,0.19745503,0.19621423,0.20003952,0.2,0.2093685,0.20182988,0.19041814,0.20000318,0.20478347,0.2,0.20222765,0.22235425,0.23060389,0.19980785,0.17996934,0.205,0.22505288,0.21994512,0.22531231,0.2290795,0.21799032,0.22,0.23323251,0.23447186,0.22327667,0.23259404,0.25161877,0.24,0.24135509,0.25126347,0.23422237,0.25389275,0.2743678,0.25,0.25213015,0.25706607,0.2612082,0.2900474,0.27231,0.25,0.27623335,0.2722132,0.24758144,0.25645986,0.26528955,0.265,0.27278182,0.28532952,0.2905648,0.2709714,0.274511,0.295,0.27447522,0.26694864,0.27054736,0.27456564,0.29155517,0.28,0.28658506,0.28824,0.27752724,0.3077885,0.2992356,0.285,0.29575083,0.28825754,0.29712337,0.28600952,0.26935273,0.275,0.26664832,0.26444632,0.262971,0.25908875,0.25237086,0.235,0.23679198,0.25280482,0.25022453,0.2347714,0.23637147,0.235,0.22526364,0.22649756,0.22015204,0.22507916,0.24274942,0.245,0.23355982,0.21514629,0.20738712,0.21397533,0.22735186,0.225,0.21040276,0.21889605,0.22976524,0.22987407,0.22943476,0.22,0.21365933,0.22822918,0.23729265,0.2247158,0.22685252,0.23,0.2317561,0.24920881,0.24203601,0.2358389,0.2471449,0.26,0.2760883,0.25015703,0.22855176,0.25975817,0.26730275,0.245,0.2433623,0.24775796,0.23755828,0.22551179,0.21185298,0.2,0.20706975,0.21731032,0.20364252,0.18508044,0.19269204,0.195,0.18865244,0.1994972,0.19140221,0.17597221,0.17463385,0.17,0.17726347,0.18832466,0.1897279,0.17888881,0.16249225,0.155,0.14181818,0.14614825,0.16267766,0.14535062,0.14336883,0.165,0.15724851,0.15858194,0.16825272,0.15395983,0.16547695,0.19,0.18288773,0.17610739,0.1892894,0.19385336,0.18386169,0.195,0.19860429,0.18051104,0.18429603,0.1700169,0.15586416,0.175,0.16794284,0.16717482,0.18173146,0.16741455,0.16802879,0.185,0.1741651,0.16163893,0.1738029,0.1683929,0.14761008,0.155,0.15713564,0.15101244,0.16234581,0.15229872,0.14027998,0.155,0.156314,0.1538532,0.15368664,0.1512556,0.17642115,0.195,0.19120955,0.18171744,0.16765347,0.17460124,0.17291594,0.175,0.19944978,0.18146886,0.16487432,0.17181316,0.171008,0.19,0.18511304,0.16925626,0.18914323,0.19300768,0.19083263,0.19,0.17498061,0.18906698,0.18816629,0.16451018,0.19279423,0.195,0.15702817,0.16791788,0.17267917,0.1523059,0.14463545,0.155,0.17463064,0.16399133,0.16575852,0.1735115,0.15185705,0.165,0.16894025,0.15590347,0.16512752,0.14446606,0.15894666,0.205,0.20450869,0.22613344,0.24747726,0.23545629,0.24250862,0.25,0.2628871,0.25481054,0.22385813,0.2422029,0.25394037,0.25,0.2613165,0.24001692,0.2248152,0.22210611,0.20783222,0.21,0.21511382,0.21208856,0.20830294,0.21129175,0.20157024,0.195,0.2169812,0.21719873,0.19597317,0.15798579,0.14225288,0.17,0.15143043,0.14105491,0.15679692,0.13278247,0.11984666,0.13,0.15973195,0.16673814,0.1607476,0.20673953,0.23864618,0.265,0.307223,0.35167933,0.40497842,0.4126391,0.4106359,0.39,0.32622018,0.26784515,0.11622705,-0.1435221,-0.3893855,-0.555,-0.5884349,-0.5222843,-0.44421893,-0.354743,-0.22849268,-0.11,-0.009494139,0.071479104,0.08645461,0.09119739,0.119880304,0.125,0.123816825,0.12944849,0.13162303,0.14965384,0.16534397,0.15,0.15898135,0.17926991,0.16239415,0.15186052,0.12938641,0.13,0.16743192,0.16077287,0.15301573,0.14520702,0.15694095,0.195,0.1863325,0.20180167,0.22200322,0.21044223,0.20208989,0.18,0.18035677,0.15945533,0.13842371,0.15637761,0.14738798,0.155,0.15813588,0.14931257,0.16596423,0.1707886,0.18359399,0.195,0.19952922,0.19449745,0.19183852,0.21245134,0.20783187,0.215,0.22588728,0.22865115,0.2592283,0.26138702,0.2546919,0.25,0.25921774,0.27815875,0.24843128,0.24524209,0.25407526,0.25,0.2620515,0.23308226,0.21478187,0.22232535,0.22704613,0.24,0.23217708,0.22865659,0.22978638,0.23262662,0.23267463,0.21,0.21510984,0.23657346,0.24098733,0.23897815,0.24154578,0.25,0.23866633,0.22756174,0.23905972,0.25557026,0.25207916,0.235,0.2348028,0.22917645,0.22325559,0.22406435,0.2126942,0.21,0.21068439,0.20287204,0.17919782,0.17358787,0.19892341,0.195,0.19741972,0.19427992,0.1625235,0.18605328,0.20287125,0.175,0.17701605,0.1859341,0.18260057,0.17713587,0.16897057,0.175,0.19191743,0.20525436,0.21685216,0.21777359,0.20185253,0.2,0.2095534,0.20535162,0.18856019,0.16789845,0.16611661,0.17,0.17324468,0.17833443,0.16933228,0.18610848,0.2057813,0.195,0.20188552,0.21102627,0.20760949,0.20143297,0.18743612,0.185,0.19342746,0.19909611,0.20152298,0.2078489,0.20975433,0.215,0.22993112,0.21529263,0.19725302,0.20389324,0.21133278,0.215,0.20293573,0.19485375,0.19334453,0.18998541,0.19537036,0.185,0.18696544,0.19279727,0.17135508,0.17617568,0.18422368,0.175,0.17606927,0.16181512,0.15324129,0.16423073,0.16453092,0.17,0.17636012,0.1638533,0.16199382,0.1738192,0.16738434,0.16,0.161163,0.1538929,0.16267607,0.15794894,0.14034422,0.18,0.19125569,0.16582029,0.1826188,0.1695062,0.16272633,0.175,0.16024569,0.16938026,0.16126871,0.17081234,0.19535258,0.17,0.17618997,0.17872453,0.15947677,0.15298025,0.16655739,0.205,0.17844988,0.16491844,0.17714168,0.1409729,0.15778624,0.175,0.16052589,0.16338204,0.1682043,0.16485764,0.13535091,0.15,0.15625131,0.13276006,0.15756239,0.14077656,0.12042367,0.135,0.14254887,0.14845766,0.12104346,0.12145821,0.1353272,0.135,0.14272605,0.118918516,0.12610435,0.14053157,0.12933728,0.14,0.13190572,0.13934456,0.15638551,0.1339621,0.12606542,0.135,0.13886967,0.14483845,0.14053133,0.13523783,0.1552341,0.17,0.16913399,0.17138511,0.14717062,0.1370579,0.1580205,0.15,0.14642291,0.1687293,0.17729402,0.17423318,0.18291764,0.2,0.21671768,0.22744422,0.21564068,0.21303064,0.2337965,0.235,0.2179764,0.21090661,0.22646838,0.23388621,0.20872976,0.185,0.17619643,0.16913463,0.15825967,0.15708107,0.17355894,0.18,0.17105898,0.17236005,0.17402908,0.15803324,0.15669703,0.16,0.14598629,0.14967674,0.13970779,0.120735444,0.12535344,0.11,0.10768077,0.10677625,0.07854775,0.089572705,0.10625278,0.115,0.14043249,0.16467863,0.20799078,0.23923852,0.27639183,0.35,0.38524422,0.3673031,0.31693405,0.2685197,0.22174588,0.095,-0.12158184,-0.3547191,-0.5094101,-0.56056726,-0.5495746,-0.51,-0.44145364,-0.30953035,-0.17107975,-0.06427435,0.017411364,0.055,0.09739387,0.11212692,0.0989667,0.108486205,0.09722357,0.11,0.12720345,0.11342231,0.12480056,0.12815893,0.117630646,0.1,0.10335958,0.13708732,0.13023107,0.11872549,0.11906429,0.115,0.13142455,0.14279337,0.1510543,0.1653639,0.16959761,0.16,0.15082556,0.14674419,0.1464202,0.1611113,0.15693325,0.15,0.17145434,0.17751577,0.174153,0.18676092,0.20171554,0.195,0.19182733,0.2093476,0.20173223,0.19687256,0.21296115,0.22,0.22074462,0.21762833,0.22724244,0.22702634,0.2284774,0.26,0.25491437,0.24713466,0.2823473,0.27250203,0.23542878,0.24,0.24591406,0.24322431,0.24726039,0.24164146,0.23333988,0.225,0.23860437,0.26551083,0.25184438,0.24019758,0.25857013,0.26,0.2507579,0.24968085,0.25131446,0.25820553,0.25873867,0.25,0.25771677,0.2599178,0.2504128,0.26043022,0.26476052,0.265,0.25451183,0.24193178,0.26801616,0.2583263,0.23476438,0.255,0.2368368,0.22204489,0.23882243,0.21911567,0.21903485,0.235,0.20959531,0.20670435,0.22139095,0.2084606,0.20630328,0.215,0.22382493,0.22095016,0.21029574,0.21843559,0.2055646,0.2,0.2086256,0.17982605,0.18860058,0.21474062,0.18797825,0.175,0.1885294,0.18794549,0.18497874,0.20620075,0.2265558,0.215,0.20460576,0.207337,0.19677135,0.18973008,0.19551091,0.19,0.20077626,0.21066077,0.19814198,0.21251978,0.19763494,0.175,0.20592338,0.20316721,0.19170079,0.19453044,0.19060136,0.2,0.18727383,0.19244367,0.19937754,0.17751694,0.18145306,0.17,0.163406,0.15890469,0.12644653,0.14215915,0.15284902,0.135,0.13567811,0.12704088,0.12655836,0.11989154,0.11740875,0.135,0.115631565,0.10381703,0.11895333,0.118998356,0.1281503,0.135,0.11054982,0.09980934,0.13182394,0.14635272,0.15378514,0.17,0.1409199,0.13553514,0.15134442,0.14253674,0.15889646,0.155,0.14782184,0.15443245,0.1443134,0.15581816,0.14516051,0.135,0.14582719,0.1381054,0.14738348,0.13613084,0.12660943,0.14,0.12698336,0.12801796,0.12578519,0.120555416,0.12396229,0.11,0.124788575,0.13828923,0.13233055,0.14780845,0.15433663,0.145,0.13607271,0.13468918,0.13053373,0.11437903,0.12458074,0.14,0.12352823,0.11670907,0.12539887,0.13370995,0.140025,0.13,0.12846975,0.13394041,0.14282402,0.17002109,0.15871567,0.135,0.14823958,0.14416717,0.14339028,0.16000842,0.15250315,0.155,0.16972528,0.1633024,0.15824908,0.14921705,0.13295293,0.135,0.13556491,0.13532503,0.12778078,0.11011133,0.12487143,0.135,0.12174696,0.11881428,0.12264215,0.124713175,0.1193587,0.125,0.11502562,0.09963266,0.1171678,0.117718264,0.13037713,0.15,0.14086981,0.13986833,0.12007188,0.11132805,0.12036435,0.12,0.14887545,0.16503169,0.1698289,0.18338843,0.1721029,0.18,0.21142691,0.21489435,0.20338641,0.19945587,0.20827614,0.225,0.2034539,0.17115428,0.1725409,0.15412985,0.14031062,0.15,0.14969853,0.15403457,0.15450679,0.15447499,0.13398823,0.125,0.16132969,0.15048482,0.120856136,0.12060955,0.113082,0.11,0.113960974,0.11539816,0.095504336,0.08605626,0.10239946,0.095,0.08823374,0.10280622,0.11997048,0.13896102,0.18046844,0.23,0.25864622,0.2984525,0.33153597,0.34381294,0.33429497,0.28,0.22237304,0.13641596,-0.028511789,-0.25521114,-0.471974,-0.585,-0.6075123,-0.5728872,-0.49277386,-0.38265738,-0.26255718,-0.165,-0.06069897,0.020310422,0.049986213,0.084980935,0.09941449,0.09,0.09760848,0.10516021,0.10380635,0.108564824,0.122316055,0.12,0.10987872,0.114750735,0.10986495,0.10662552,0.123031795,0.12,0.10908781,0.120578386,0.12756784,0.13358638,0.14011388,0.135,0.14196241,0.15625265,0.16251312,0.1554345,0.14335878,0.145,0.16078815,0.17649458,0.16644199,0.17369138,0.20379107,0.195,0.18844622,0.19276573,0.1865948,0.19464587,0.19991837,0.195,0.19336502,0.20654343,0.20540644,0.19206747,0.20231584,0.2,0.2055881,0.22592156,0.23514968,0.23842888,0.21554814,0.225,0.24256931,0.2253927,0.22956336,0.21745344,0.22634766,0.255,0.24531117,0.25467703,0.24023215,0.22710647,0.26131743,0.265,0.25980663,0.25742197,0.254518,0.25217158,0.24596703,0.27,0.2696329,0.2551929,0.26986974,0.26521662,0.26072094,0.265,0.26081207,0.2585876,0.26780325,0.2843972,0.26267475,0.24,0.2571013,0.25906745,0.25158393,0.24720179,0.23951083,0.245,0.2306825,0.21173951,0.22369824,0.208118,0.18380415,0.205,0.21309881,0.19458523,0.18833269,0.19178277,0.19536276,0.195,0.2021863,0.21445914,0.2099998,0.2068564,0.22990516,0.225,0.18793438,0.19355978,0.19979538,0.19695272,0.21153615,0.2,0.19868869,0.19537194,0.19183718,0.20961343,0.19042927,0.205,0.22500211,0.19218136,0.20403369,0.21164818,0.19322638,0.205,0.2187224,0.22139736,0.21697716,0.21338505,0.20249997,0.205,0.22762512,0.22647648,0.21025093,0.20635562,0.22348547,0.22,0.21142852,0.23262632,0.20621194,0.17407504,0.19576582,0.21,0.20303056,0.18549243,0.1766076,0.17269227,0.17102233,0.18,0.17227378,0.16807437,0.17092235,0.17112868,0.17413297,0.155,0.15914875,0.17876217,0.14286797,0.12850907,0.16746807,0.175,0.15766779,0.14743629,0.14374462,0.14615977,0.15210138,0.17,0.17667656,0.16460215,0.15544389,0.15815558,0.17253436,0.175,0.17823817,0.18247661,0.17719296,0.18267232,0.17780197,0.17,0.16926636,0.18171385,0.1909535,0.1515069,0.14423457,0.17,0.16535497,0.1724332,0.1696761,0.15749022,0.16776928,0.17,0.14893867,0.14531046,0.16813949,0.15539685,0.14670382,0.16,0.15509164,0.15835582,0.13933688,0.12464436,0.14308807,0.135,0.115914814,0.1248153,0.1457353,0.12866755,0.11657858,0.135,0.13361472,0.15739644,0.17419301,0.16208407,0.17908657,0.175,0.15225627,0.14624089,0.14407887,0.14498122,0.13849775,0.14,0.14577843,0.13957456,0.14685775,0.15765864,0.16180867,0.18,0.18231022,0.17443031,0.17203997,0.1527955,0.16521008,0.17,0.14834414,0.17348434,0.17064087,0.15240958,0.16018572,0.145,0.15087439,0.1668477,0.17580423,0.1778929,0.16238348,0.16,0.15923044,0.16839959,0.1624436,0.16065365,0.20297477,0.21,0.21159965,0.22019383,0.20993263,0.23064367,0.23176594,0.22,0.22649963,0.20936868,0.21303768,0.23588271,0.21190402,0.18,0.17613302,0.16438197,0.16047172,0.16643237,0.17309369,0.195,0.18083876,0.16772266,0.18542221,0.18302889,0.19232006,0.175,0.14091,0.14658092,0.13349195,0.12502557,0.12312787,0.12,0.13585672,0.11388898,0.10957046,0.1287386,0.11164834,0.13,0.18079235,0.22402428,0.2609188,0.29536143,0.3449921,0.38,0.39833924,0.38774902,0.3407963,0.30706772,0.2253793,0.05,-0.17208634,-0.40769702,-0.56030726,-0.58080816,-0.5319654,-0.445,-0.33717036,-0.22327279,-0.1023201,0.004416524,0.07528548,0.095,0.1005371,0.12425041,0.11174679,0.10404558,0.14220361,0.145,0.12302678,0.1133883,0.12716542,0.15240882,0.14853908,0.16,0.17186286,0.16036288,0.1625039,0.15580817,0.15733564,0.17,0.17004268,0.17100476,0.16503686,0.16029169,0.1806829,0.195,0.1722577,0.18803927,0.21618383,0.19619215,0.20354125,0.205,0.21357177,0.23554744,0.21790339,0.22598287,0.21502285,0.215,0.23716691,0.22071216,0.2424608,0.2345251,0.22954203,0.25,0.22159325,0.23807985,0.23608941,0.23024663,0.25737563,0.245,0.26068652,0.26472816,0.26201582,0.27046067,0.26633534,0.285,0.25844786,0.2364216,0.2406874,0.22307692,0.21965353,0.21,0.21639737,0.2307224,0.24455506,0.2446206,0.22434221,0.26,0.2665452,0.24383546,0.26423913,0.25844207,0.25011328,0.25,0.25564006,0.2776863,0.27406153,0.26050076,0.25415742,0.255,0.25989118,0.25342458,0.22907718,0.22280653,0.24237548,0.225,0.20866038,0.21638002,0.21164812,0.21863005,0.20385052,0.18,0.19328865,0.18444242,0.17103107,0.1843118,0.16334444,0.155,0.1909397,0.18872069,0.17462869,0.18504038,0.19009031,0.185,0.17924385,0.18574105,0.17788789,0.18036647,0.19554496,0.18,0.1826276,0.18436025,0.17926773,0.18516895,0.16601694,0.17,0.18087858,0.17929307,0.19504404,0.18849216,0.17387316,0.185,0.20367546,0.19964363,0.1931841,0.19303086,0.1774544,0.185,0.19542402,0.19391854,0.19287352,0.18239352,0.19969639,0.2,0.18756452,0.20292807,0.18359968,0.18228383,0.21399494,0.205,0.19912286,0.19408472,0.17650251,0.19570328,0.19583566,0.18,0.21378784,0.21779467,0.19014703,0.19408333,0.19279188,0.175,0.16784008,0.18550277,0.18618645,0.1826687,0.20257127,0.19,0.18696468,0.1949834,0.18059735,0.17146158,0.16596562,0.19,0.17830122,0.15666862,0.19602661,0.18983813,0.17551762,0.175,0.15169244,0.15447491,0.14860366,0.14939879,0.16744567,0.165,0.15239497,0.14688358,0.15425001,0.14389971,0.14153534,0.145,0.13861649,0.14988683,0.14182872,0.13530813,0.14092627,0.155,0.16893458,0.13395296,0.13336685,0.15182202,0.13183697,0.145,0.1565456,0.14913942,0.15332857,0.15575582,0.16141935,0.165,0.16417418,0.17628153,0.19256295,0.17391692,0.16014512,0.16,0.13698684,0.14253408,0.13236174,0.101899095,0.11371948,0.12,0.124043114,0.12185551,0.12784591,0.15123385,0.12751757,0.11,0.12391352,0.11749734,0.10300922,0.12274456,0.1452161,0.115,0.106591925,0.11739511,0.11599208,0.13952339,0.12984136,0.12,0.13548931,0.12098273,0.115565546,0.13343567,0.15293698,0.155,0.1643657,0.1916883,0.19143154,0.19443597,0.21361175,0.225,0.22202721,0.2163764,0.22893545,0.23680766,0.24044533,0.23,0.21181,0.20225675,0.18512279,0.1874897,0.16730376,0.14,0.16144468,0.16508995,0.17580707,0.19170047,0.17006983,0.16,0.15600973,0.1565985,0.16271049,0.15663551,0.14846073,0.145,0.15032038,0.13825895,0.123648204,0.12573236,0.11822137,0.12,0.12525438,0.12975694,0.16218072,0.18518417,0.19351576,0.24,0.30792817,0.36168498,0.40411925,0.42336923,0.4029717,0.36,0.32692558,0.26859197,0.11493275,-0.11907583,-0.35888344,-0.51,-0.5354289,-0.4892683,-0.40670916,-0.3006312,-0.17993937,-0.06,0.023452537,0.07261651,0.11550813,0.1413204,0.13887501,0.145,0.16555402,0.18856788,0.19110197,0.15591268,0.16815192,0.2,0.17109264,0.160895,0.16296083,0.14304712,0.15535088,0.175,0.15927175,0.15194692,0.17442866,0.17928082,0.18913995,0.2,0.16971351,0.17145422,0.20032836,0.194064,0.184665,0.19,0.19094773,0.18779065,0.19711302,0.20990829,0.22175021,0.21,0.18460451,0.20528702,0.21488376,0.20271523,0.21913995,0.23,0.23490952,0.22652543,0.21697946,0.23291683,0.24694888,0.25,0.24080385,0.24819109,0.25739327,0.24644476,0.25883642,0.265,0.2667274,0.28146857,0.27178088,0.2748375,0.27717352,0.25,0.2549531,0.276492,0.2820183,0.27357197,0.24460906,0.24,0.24240668,0.23434235,0.2541805,0.25675893,0.25049612,0.255,0.24926096,0.2610099,0.262401,0.25178576,0.24992609,0.255,0.25791553,0.24205056,0.26293325,0.2701494,0.24914238,0.27,0.25264764,0.23166001,0.23455709,0.21073432,0.21931574,0.225,0.21063446,0.21337529,0.21587306,0.2119513,0.19747536,0.2,0.2025675,0.1895087,0.19892652,0.21470816,0.21351367,0.205,0.20859762,0.20934793,0.1982748,0.19376376,0.18930854,0.195,0.20492725,0.1989987,0.19233093,0.1976826,0.19204311,0.18,0.19301666,0.1878644,0.17653047,0.19077557,0.18838337,0.19,0.20242783,0.21670254,0.21324074,0.1849668,0.18752266,0.19,0.19221972,0.19781873,0.1772671,0.18965913,0.19824092,0.19,0.21918115,0.22875987,0.20309849,0.18476684,0.17942166,0.18,0.18874124,0.18773353,0.18702191,0.19643845,0.17471421,0.175,0.18049587,0.15237908,0.17372441,0.16826448,0.13945782,0.17,0.16182965,0.14311424,0.16333964,0.1588783,0.14379962,0.16,0.18814471,0.18183726,0.17163981,0.17593911,0.16829029,0.17,0.179086,0.17703585,0.15456884,0.14818601,0.17421062,0.165,0.15212622,0.17413875,0.17969455,0.1733421,0.17573145,0.175,0.1667123,0.15871263,0.14951278,0.15624884,0.17816561,0.175,0.16588916,0.15895984,0.15291777,0.1544424,0.14298911,0.15,0.15260848,0.14716594,0.1679351,0.15437451,0.1408716,0.155,0.15159038,0.14419357,0.13390377,0.13993141,0.14359412,0.135,0.14382392,0.14406721,0.1515879,0.15048133,0.13321361,0.14,0.1333774,0.12348065,0.1267505,0.124998935,0.13862021,0.145,0.1319535,0.12865965,0.13087268,0.12963673,0.12957352,0.12,0.12065785,0.14802954,0.15269376,0.13099118,0.11906938,0.125,0.13505775,0.12826815,0.12508625,0.13400942,0.14027254,0.125,0.10045875,0.11367652,0.11536346,0.0944643,0.11741828,0.14,0.12754244,0.12495165,0.13872655,0.14766787,0.14943795,0.135,0.123112515,0.14289673,0.14834066,0.12634793,0.12835336,0.15,0.14775343,0.14271139,0.16443788,0.16696244,0.16056241,0.175,0.18503599,0.17661852,0.16816674,0.2022497,0.21849208,0.205,0.2184289,0.21571061,0.22311082,0.22601148,0.20053285,0.185,0.16518939,0.18084292,0.16717388,0.124412045,0.15341307,0.165,0.15093856,0.14686066,0.14731894,0.15735558,0.14812171,0.155,0.15336435,0.1449305,0.15518536,0.13276134,0.12088226,0.13,0.11877917,0.10431532,0.11432617,0.1268894,0.11915341,0.135,0.14939652,0.15915728,0.18765332,0.22269538,0.30339262,0.365,0.37357375,0.3816515,0.36636314,0.3153061,0.23153166,0.125,-0.067684926,-0.33342838,-0.51045054,-0.58733946,-0.5886701,-0.525,-0.42186782,-0.28213617,-0.18047823,-0.078375354,0.030880822,0.05,0.055068646,0.07650718,0.086645834,0.10871609,0.11532468,0.125,0.12349426,0.11773157,0.15259452,0.14312528,0.1270853,0.155,0.14020601,0.13235983,0.14900921,0.1495808,0.14914595,0.14,0.15505394,0.16603643,0.15175988,0.16148192,0.17063624,0.175,0.18005544,0.17951624,0.17915535,0.1726105,0.17661485,0.18,0.18257807,0.1986394,0.21081205,0.2053824,0.1947795,0.215,0.22359045,0.20492512,0.21356297,0.22012308,0.22118631,0.225,0.21931651,0.23028405,0.23735897,0.24463657,0.24805355,0.23,0.2488191,0.26009724,0.23446517,0.22901613,0.21038769,0.215,0.23691547,0.22047672,0.25162658,0.27544248,0.25189483,0.26,0.24597557,0.23009218,0.24225606,0.23681276,0.25058776,0.275,0.26042524,0.24501018,0.26074198,0.25191122,0.24082045,0.25,0.23626135,0.24274085,0.23528342,0.23071048,0.2711117,0.255,0.240699,0.26563334,0.26940197,0.26049194,0.25660422,0.275,0.24948461,0.22077508,0.23248833,0.22831844,0.24345636,0.23,0.21213597,0.22579989,0.20370094,0.20682816,0.21253254,0.19,0.18480463,0.18926737,0.20306109,0.19160405,0.18081363,0.195,0.19525455,0.19884177,0.19372253,0.17218679,0.17162578,0.175,0.17232557,0.19654223,0.20192267,0.17612532,0.18392828,0.195,0.19076747,0.1865058,0.18621323,0.18990931,0.17724799,0.175,0.17202659,0.16718163,0.1737924,0.1782324,0.1989769,0.195,0.17630166,0.17586696,0.19396278,0.21211103,0.18385045,0.19,0.20328681,0.19214691,0.2131019,0.1905067,0.18354204,0.195,0.17878668,0.19699448,0.19173346,0.18678947,0.18019691,0.155,0.17188285,0.17035303,0.16750441,0.18639259,0.18261123,0.17,0.16839626,0.17397389,0.15912598,0.15928555,0.17021394,0.16,0.15590194,0.14768015,0.14617959,0.15112877,0.1495069,0.145,0.14683692,0.16398878,0.15720896,0.15092234,0.16141966,0.16,0.15314928,0.13217933,0.12184108,0.12841894,0.14395903,0.155,0.14494988,0.15815063,0.16418417,0.15168762,0.15526895,0.14,0.13269225,0.14440656,0.14346157,0.14665005,0.13602701,0.125,0.14305493,0.13469224,0.12032835,0.13796371,0.14590882,0.155,0.1412157,0.123306476,0.14165036,0.121358834,0.10643078,0.125,0.12905067,0.13514097,0.13259678,0.13823292,0.12403999,0.105,0.1239814,0.11120842,0.11118274,0.12681076,0.10575987,0.11,0.124685794,0.1236893,0.13009048,0.13545318,0.120374694,0.1,0.09916778,0.102593355,0.112063155,0.12275833,0.118377894,0.115,0.123617336,0.1232414,0.11950571,0.12665664,0.110950716,0.115,0.13576406,0.12431867,0.13650021,0.14292313,0.12740676,0.12,0.12917198,0.15588525,0.14147349,0.14048897,0.14757553,0.125,0.13732105,0.13700497,0.14340223,0.1541072,0.13145322,0.14,0.15314879,0.17017883,0.18742165,0.18294966,0.18573731,0.185,0.19596024,0.21297309,0.21121457,0.1916357,0.1940861,0.215,0.19467518,0.18750069,0.1820178,0.1467111,0.14115846,0.14,0.12322472,0.11515721,0.13304015,0.13669187,0.1245162,0.13,0.10537113,0.09849245,0.10612941,0.09000766,0.10407905,0.105,0.0916653,0.080414236,0.07495366,0.089746796,0.075454876,0.07,0.079823956,0.08321307,0.10221975,0.11505389,0.14949097,0.195,0.23451515,0.291109,0.3294855,0.35496694,0.3552765,0.3,0.23764215,0.15382126,-0.001773538,-0.20463134,-0.42209813,-0.58,-0.61805385,-0.58435297,-0.5126981,-0.412042,-0.28887245,-0.165,-0.07171232,0.008491059,0.065649375,0.103499725,0.105740845,0.08,0.10786926,0.116798684,0.093491755,0.10765578,0.10849014,0.11,0.11536525,0.120575294,0.14274226,0.1300431,0.11533773,0.13,0.12327634,0.11799632,0.13459514,0.12057572,0.11958675,0.155,0.15622726,0.16254868,0.17407452,0.1678262,0.16255999,0.145,0.16394931,0.17626354,0.16477597,0.17250077,0.16337317,0.18,0.1921034,0.18558013,0.1962275,0.19521935,0.21378875,0.2,0.19217177,0.23381928,0.2185992,0.21745098,0.2422832,0.24,0.25282356,0.25295794,0.25206426,0.2631235,0.25061017,0.235,0.2543604,0.26750955,0.24617887,0.25194773,0.26587254,0.265,0.26967221,0.2695333,0.26982453,0.26136228,0.26774076,0.265,0.24733907,0.27718216,0.27483946,0.25016874,0.26129958,0.24,0.23487432,0.25889263,0.25450844,0.2476474,0.23034215,0.22,0.23761891,0.23831066,0.23398532,0.23246855,0.21785,0.23,0.24670081,0.22712506,0.21918136,0.22755845,0.22325017,0.21,0.19515958,0.20944622,0.224672,0.19590347,0.18742558,0.205,0.2005849,0.20656265,0.2059875,0.19120973,0.2035779,0.21,0.21623933,0.22999209,0.20548175,0.17761251,0.18275598,0.195,0.19506349,0.20256592,0.21648297,0.20182462,0.2044408,0.23,0.21481621,0.20701943,0.2261587,0.2180269,0.20406803,0.215,0.2298023,0.21873291,0.20351404,0.21805227,0.22346477,0.21,0.20991664,0.20238423,0.18512557,0.17879565,0.181161,0.19,0.19082563,0.19092914,0.20088957,0.19615659,0.19791403,0.22,0.21083799,0.18656014,0.18962412,0.1976542,0.20741868,0.215,0.21773316,0.23242012,0.22846736,0.20883244,0.2200435,0.245,0.235596,0.2118709,0.21334141,0.21378343,0.21686521,0.22,0.19850771,0.19453722,0.2085682,0.21766715,0.21258625,0.205,0.21115789,0.19524817,0.19349688,0.19738801,0.1771371,0.18,0.164801,0.15735245,0.17171688,0.15960535,0.16833942,0.165,0.13803397,0.13261159,0.14193186,0.15200481,0.1430901,0.15,0.15336154,0.1364712,0.1353469,0.124762595,0.12722316,0.125,0.10489509,0.119196326,0.122695304,0.11354362,0.12153353,0.12,0.115829535,0.10838602,0.10597895,0.12099401,0.11741131,0.115,0.13419262,0.12218398,0.11714907,0.13531381,0.12804909,0.135,0.14122945,0.1399577,0.15040506,0.1384414,0.1363179,0.135,0.12053119,0.12823026,0.14310569,0.14159968,0.12858202,0.14,0.14666279,0.14203538,0.14596638,0.12594269,0.12801778,0.13,0.11484413,0.11681946,0.09363555,0.098242186,0.10699237,0.075,0.08834779,0.10813225,0.09863736,0.1045734,0.10910571,0.095,0.089081876,0.09597477,0.109515525,0.12161914,0.09950986,0.1,0.1210434,0.10644386,0.112333685,0.10935938,0.101806514,0.125,0.12996781,0.13217841,0.1201321,0.120582394,0.14216557,0.135,0.1497577,0.16320449,0.15802817,0.1696655,0.16182394,0.16,0.18231495,0.18343599,0.18192172,0.20545301,0.21467124,0.215,0.2251085,0.21723706,0.21899052,0.22581458,0.22643189,0.245,0.26835364,0.30970845,0.3349237,0.33801365,0.35791188,0.335,0.27951202,0.23255764,0.17458045,0.14337103,0.13758223,0.11,0.10863845,0.14136285,0.13945279,0.15120071,0.19100863,0.195,0.2041107,0.23756117,0.26685813,0.29897672,0.33762097,0.37,0.40919515,0.4606544,0.46526614,0.44075307,0.41204426,0.36,0.3034348,0.1576727,-0.08624718,-0.31835485,-0.50727683,-0.595,-0.5675211,-0.49772286,-0.4057069,-0.27255762,-0.13510941,-0.03,0.05323689,0.09402439,0.12634417,0.14761296,0.13332592,0.155,0.16370815,0.15270141,0.17423181,0.1675668,0.15471765,0.165,0.17849588,0.17420633,0.15360151,0.16152176,0.16950311,0.16,0.15544842,0.15248275,0.14434338,0.14083013,0.15193069,0.15,0.14929697,0.14574018,0.13588423,0.1416039,0.12588988,0.125,0.12872861,0.109821886,0.11622728,0.1090253,0.10750019,0.12,0.11094099,0.11519487,0.12762584,0.15185638,0.17895642,0.185,0.17634405,0.18117523,0.19789408,0.18092637,0.1839714,0.195,0.18736741,0.2085102,0.1958757,0.17772526,0.18594414,0.185,0.19085932,0.17790253,0.18321064,0.19548397,0.17632693,0.175,0.17604679,0.17154014,0.16649848,0.16775034,0.1831522,0.195,0.19703728,0.1848401,0.19474852,0.20664126,0.20603344,0.215,0.20925295,0.22903594,0.24299775,0.23403582,0.25408828,0.25,0.24318418,0.24870412,0.2389319,0.24307358,0.24496332,0.255,0.26601717,0.25661665,0.2564072,0.25030786,0.23906769,0.245,0.24646917,0.23785505,0.23079449,0.22116965,0.22143085,0.23,0.23006085,0.23089117,0.22532552,0.21795267,0.2138167,0.21,0.21528392,0.2052483,0.19970989,0.20553666,0.19214065,0.195,0.20548828,0.1999486,0.20383315,0.20137183,0.18867023,0.2,0.21126278,0.19929236,0.19069244,0.18125154,0.18868017,0.2,0.17884682,0.17235695,0.17629479,0.17492582,0.17440492,0.175,0.18505077,0.17885897,0.19177118,0.19446936,0.16681288,0.18,0.1784017,0.17349891,0.18437965,0.1670814,0.16659217,0.165,0.15524451,0.15579359,0.1527017,0.14762154,0.14589545,0.155,0.15023974,0.164347,0.17726757,0.1480059,0.15530148,0.175,0.1673328,0.15690713,0.1580829,0.16616489,0.15159848,0.15,0.15141352,0.15196466,0.17239422,0.1721169,0.16268824,0.14,0.13154957,0.15145075,0.15647854,0.16186136,0.15232986,0.16,0.17748238,0.1542753,0.15928404,0.18153775,0.18516119,0.18,0.16541925,0.17684911,0.18842562,0.17298457,0.17180821,0.18,0.17166598,0.16942517,0.16530514,0.14971912,0.151181,0.15,0.14864686,0.15301768,0.14177863,0.1324707,0.12976542,0.13,0.12574172,0.12762307,0.12692332,0.10745846,0.10612395,0.105,0.10012924,0.095069826,0.0874354,0.10028972,0.091264844,0.085,0.0874099,0.07703114,0.08766605,0.07734401,0.07165454,0.08,0.07770745,0.0939212,0.08625692,0.08371938,0.102943935,0.11,0.1125992,0.09271801,0.10242687,0.122059524,0.09394266,0.1,0.13355444,0.11862685,0.09228972,0.10298884,0.12298846,0.13,0.13016188,0.13032043,0.12512793,0.10919309,0.11221628,0.115,0.10469986,0.11672542,0.13583046,0.15054068,0.16249746,0.18,0.18657917,0.18320823,0.20237228,0.18857418,0.17040004,0.19,0.1944354,0.20316432,0.19614547,0.17280754,0.16931926,0.155,0.14885268,0.15243502,0.14418519,0.1388904,0.14071627,0.14,0.12352673,0.11384545,0.11577036,0.10300858,0.08805251,0.085,0.081181064,0.07645043,0.07082032,0.06330662,0.07245308,0.07,0.055285145,0.05933179,0.060349572,0.08274337,0.107506715,0.12,0.16581453,0.19735962,0.22468294,0.27598497,0.31639183,0.325,0.28794664,0.2597041,0.21874058,0.106551364,-0.086716,-0.355,-0.5487166,-0.61894435,-0.6291066,-0.58081996,-0.50818837,-0.39,-0.2642502,-0.17267284,-0.061737128,0.008401833,0.021099439,0.025,0.031433307,0.053281173,0.06509181,0.07427767,0.072420835,0.06,0.07282537,0.068963766,0.049906954,0.054628957,0.06611144,0.055,0.04282498,0.06197004,0.054683823,0.038249087,0.059508435,0.06,0.0533042,0.06613357,0.07027116,0.06124547,0.06900054,0.085,0.06370118,0.0664357,0.07330626,0.048469834,0.08567844,0.095,0.059508495,0.082697585,0.085286036,0.085679285,0.10644059,0.09,0.09512212,0.11013601,0.09038438,0.079794765,0.10060667,0.12,0.11205767,0.110841885,0.118182,0.112487935,0.11663891,0.115,0.10080846,0.10589129,0.11161595,0.110902734,0.12231784,0.12,0.10630323,0.10247483,0.09529149,0.097922385,0.09809358,0.085,0.09340113,0.085714184,0.066668235,0.08430225,0.08816557,0.08,0.08094461,0.07674692,0.090857446,0.102297105,0.10666733,0.115,0.10731862,0.09963354,0.10511929,0.12060034,0.10982831,0.09,0.10689546,0.107151166,0.09001526,0.07150893,0.060674857,0.075,0.056487247,0.037382994,0.045101415,0.043631323,0.037767027,0.02,0.026386192,0.032026548,0.01697875,0.023215089,0.01059487,-4.55E-17,0.001250295,0.001059131,0.026660437,0.022269612,0.003994772,0.015,0.019620718,0.026342735,0.028152041,0.003759456,-0.01093703,-0.015,-0.025712458,-0.008526461,-0.000664317,-0.023462279,-0.023935625,-0.03,-0.03271234,-0.019864297,-0.025024397,-0.0329882,-0.0411625,-0.04,-0.061267726,-0.09813454,-0.090394184,-0.07663771,-0.075389884,-0.085,-0.08053836,-0.0527568,-0.05590802,-0.057462487,-0.04972986,-0.055,-0.055341594,-0.052569497,-0.046114534,-0.044856306,-0.038176782,-0.04,-0.057461537,-0.06684233,-0.07262523,-0.06801519,-0.07846791,-0.08,-0.060564414,-0.06789183,-0.06646117,-0.06926897,-0.080891326,-0.08,-0.08192794,-0.06493661,-0.06078132,-0.052241318,-0.027104104,-0.035,-0.033500697,-0.015580375,-0.003201196,-0.001018297,-0.005054167,-0.005,-0.018708525,-0.011251008,-0.007927785,-0.03556204,-0.039330233,-0.05,-0.06874427,-0.07402422,-0.09251603,-0.098830745,-0.080596514,-0.065,-0.06847761,-0.0711249,-0.07428719,-0.10246128,-0.106478974,-0.075,-0.07107158,-0.092012785,-0.090553686,-0.08675776,-0.10172053,-0.08,-0.057960544,-0.07277886,-0.052814458,-0.04188037,-0.055411026,-0.035,-0.02827519,-0.032576907,-0.02819373,-0.042995952,-0.05545672,-0.04,-0.027290132,-0.05258933,-0.054696873,-0.036114793,-0.05472867,-0.06,-0.054822236,-0.05298269,-0.04834793,-0.04783601,-0.02528712,-0.025,-0.029166203,-0.004107777,-0.003918073,-0.011513715,-0.008992148,3.03E-17,-0.002218669,-0.01005765,0.005004583,-0.000157828,0.004410124,0.03,0.026056258,0.034142703,0.061903667,0.07999428,0.07053719,0.05,0.065162346,0.077911645,0.07119383,0.07968334,0.07725524,0.06,0.055976037,0.043016937,0.029637478,0.039731964,0.030556927,0.015,0.04241928,0.066746876,0.058518354,0.06681033,0.08120124,0.085,0.106832065,0.10643876,0.0977984,0.10849796,0.1039969,0.11,0.099788316,0.08672694,0.089861296,0.06426775,0.06830792,0.06,0.033688627,0.05020523,0.0361102,0.026039349,0.035913307,0.04,0.0507714,0.040192917,0.04955234,0.048223846,0.014174902,0.005,0.00172059,-0.011025688,-0.034405332,-0.036792397,-0.031053944,-0.04,-0.012200701,0.009075655,0.019161582,0.06641534,0.10601869,0.14,0.1901563,0.23653157,0.2823513,0.3009274,0.27317458,0.25,0.22062692,0.15289627,0.036356088,-0.1768434,-0.43404275,-0.625,-0.69452035,-0.67566484,-0.6247142,-0.51450753,-0.40099823,-0.31,-0.1847477,-0.08377785,-0.038032275,-0.03021664,-0.028165244,-0.02,-0.033043295,-0.030570557,-0.021803811,-0.026482308,-0.016559737,0.005,0.019689323,0.013929352,0.007419651,0.015205193,0.04082798,0.055,0.042145558,0.03457491,0.021081867,0.026805794,0.047603443,0.05,0.05148816,0.037936717,0.04103631,0.05028515,0.03815459,0.04,0.031994846,0.035333946,0.057439476,0.05790931,0.05526173,0.06,0.058000755,0.037157644,0.02720879,0.03133978,0.037579354,0.055,0.047879063,0.048412755,0.07823819,0.08274009,0.074040085,0.075,0.07882081,0.086638086,0.09215557,0.08812642,0.09140148,0.09,0.07928705,0.091486044,0.0901328,0.07601896,0.074912906,0.08,0.10302677,0.091501445,0.07628416,0.09815405,0.08454247,0.075,0.09343215,0.09190632,0.09261675,0.10481948,0.1105215,0.115,0.12445807,0.117250904,0.10393724,0.11929538,0.1360666,0.125,0.12218127,0.13571204,0.12777899,0.12871847,0.13359864,0.12,0.13263528,0.12557322,0.11092523,0.13422143,0.11779113,0.095,0.10879209,0.09801117,0.064845,0.04510522,0.05404185,0.08,0.087691754,0.06514483,0.046211783,0.046087302,0.051609617,0.06,0.0524702,0.049323875,0.062491104,0.054139193,0.05247078,0.075,0.07765371,0.063599296,0.055857178,0.04624447,0.054126117,0.075,0.0599314,0.04929811,0.06172293,0.04489591,0.028813848,0.025,0.014966731,0.022977803,0.016517714,-0.006894051,0.003985331,0.01,0.003867147,0.009339736,-0.008190807,-0.011594978,0.000768844,-0.005,-0.000479993,-0.00640128,-0.007696327,0.002540299,-0.000326425,0.005,0.00451273,0.01722426,0.027343823,0.017203415,0.027323341,0.02,0.005779421,0.001908025,0.002329673,0.011348011,-0.010381212,-0.01,0.014126362,0.006195797,-0.007933873,-0.01778229,-0.013747371,-0.02,-0.030451814,-0.027669137,-0.0347859,-0.034202356,-0.042141605,-0.035,-0.018996084,-0.027361566,-0.01697025,-0.029692601,-0.03743286,-0.02,-0.033797268,-0.024560587,-0.026307002,-0.03012898,0.005462803,-0.01,-0.03147393,-0.020345142,-0.022695336,-0.014437126,-0.004350414,-0.01,-0.022526354,-0.030409412,-0.028638646,-0.03178421,-0.027856499,-0.015,-0.010779068,-0.003485936,0.001530335,0.000673689,0.012760562,0.015,0.012612083,0.030009137,0.03482735,0.027535213,0.024067167,0.015,0.009439556,0.014974459,0.00618953,-0.018550305,-0.018759178,-0.03,-0.054169454,-0.050173692,-0.05308535,-0.044219296,-0.04951327,-0.065,-0.044679705,-0.072088815,-0.07924257,-0.046297055,-0.06471831,-0.06,-0.060038447,-0.07841653,-0.065503284,-0.07022842,-0.080978304,-0.08,-0.07515074,-0.07943491,-0.06952285,-0.041359697,-0.046878103,-0.025,0.016401635,0.028987536,0.06891436,0.13077393,0.20581463,0.265,0.26850855,0.2445478,0.20257019,0.14360918,0.029070856,-0.19,-0.45193246,-0.66127926,-0.77558494,-0.7810562,-0.73517466,-0.665,-0.52876526,-0.4093144,-0.31796113,-0.20933601,-0.16018216,-0.135,-0.110814445,-0.11180757,-0.10330346,-0.087186694,-0.060513373,-0.065,-0.06646368,-0.032224625,-0.041479386,-0.046977166,-0.034558766,-0.05,-0.057155658,-0.03839209,-0.025277192,-0.033174474,-0.028784093,-0.04,-0.044691958,-0.02257117,-0.037910033,-0.031227103,-0.01508124,-0.025,-0.015938986,-0.021509841,-0.022483801,-0.01122821,-0.002916324,-9.09E-17,-0.021594325,-0.024830425,-0.015359667,-0.014614351,-0.008467115,-0.005,-0.013604032,-0.00515612,0.032212418,0.02510652,0.003571664,0.005,-0.00199159,0.02567563,0.048858427,0.041816257,0.039516687,0.035,0.035401165,0.0321199,0.04911869,0.06840788,0.05014698,0.04,0.04875822,0.048476253,0.041895363,0.048116233,0.04237303,0.04,0.0481129,0.021397784,0.020864887,0.028909309,0.020694287,0.04,0.029497603,0.024152946,0.05382659,0.06659803,0.04929451,0.025,0.036970664,0.039056137,0.035149798,0.04000977,0.035677865,0.05,0.03461945,0.031227507,0.04311035,0.02338123,0.039592605,0.03,0.012413281,0.021014426,-0.015626399,-0.017143402,0.007447619,0.005,-0.002047069,-0.015829831,-0.007280342,-0.009472561,-0.012937207,-7.58E-17,-0.021073777,-0.020200478,-0.000117277,0.000285986,0.012636268,0.01,0.000264987,-0.001807133,-0.009380051,-0.009720624,-0.008977332,0.01,0.010449122,-0.011092539,0.017122045,0.025716709,0.001796511,0,-0.001588441,0.015081716,0.013916594,-0.004683658,0.001343225,-3.03E-17,0.012852362,-0.002433711,-0.052220833,-0.036331296,-0.030177258,-0.075,-0.07378652,-0.07428751,-0.11315383,-0.10414477,-0.085314244,-0.11,-0.12047372,-0.12155621,-0.12815,-0.12067934,-0.11514316,-0.125,-0.13467436,-0.13433637,-0.13559501,-0.122947514,-0.11602008,-0.125,-0.11246557,-0.111249544,-0.11558031,-0.106229685,-0.09774439,-0.085,-0.08532969,-0.07519485,-0.07143986,-0.08209753,-0.06536188,-0.045,-0.022699757,-0.024493849,-0.02662567,-0.002112995,-0.01362417,3.03E-17,0.030628841,0.012039941,0.004952095,0.010995651,0.002822654,0,0.017001873,0.019676814,0.014327093,0.031864293,0.019411301,0,0.012031365,0.02261732,0.02812386,0.03001693,0.022436067,0.01,0.017975625,0.01600744,0.010355967,0.033557087,0.019139366,0.01,0.025677858,0.015175612,0.02242911,0.019416332,0.003967458,0.015,0.021132518,0.010420769,0.001158276,0.009783442,0.014846527,0.01,0.001303631,0.002030461,0.002226136,-0.015537494,-0.000581951,-0.01,-0.03323384,-0.008737105,-0.030062392,-0.041938055,-0.023624986,-0.03,-0.024363432,-0.041159287,-0.054502703,-0.057863913,-0.057266325,-0.04,-0.057195444,-0.049989168,-0.037970062,-0.05505084,-0.041167922,-0.04,-0.041961182,-0.036563963,-0.04459682,-0.03303037,-0.025927564,-0.045,-0.06059168,-0.04680817,-0.038531754,-0.04806983,-0.043692585,-0.045,-0.042336985,-0.033720408,-0.03927679,-0.03783668,-0.035965074,-0.05,-0.049384564,-0.027848205,-0.05128126,-0.07878455,-0.047370154,-0.035,-0.044225346,-0.048351064,-0.04717226,-0.039937016,-0.06594143,-0.06,-0.02237217,-0.026521344,-0.028421577,-0.024696108,-0.024878396,-0.035,-0.058633313,-0.04929143,-0.029063398,-0.012811341,0.001615264,0.005,0.017654002,0.023695894,0.031250406,0.04414923,0.05211267,0.06,0.03647204,0.015487256,0.014400372,0.006967567,-0.003806192,-0.035,-0.03131065,-0.010095133,-0.026236761,-0.01842365,-0.01718179,-0.02,-0.01225271,-0.030876115,-0.014923668,-0.010648363,-0.038508236,-0.035,-0.04594428,-0.054990962,-0.041513365,-0.04390869,-0.064606756,-0.075,-0.05806124,-0.052780863,-0.056425165,-0.05297112,-0.033910587,9.09E-17,0.018497089,0.0781981,0.16125181,0.19277929,0.21539569,0.23,0.19738862,0.12523924,0.051722288,-0.06408372,-0.29838774,-0.54,-0.6820853,-0.73831683,-0.7052565,-0.6275658,-0.5337415,-0.415,-0.30937174,-0.21138604,-0.1353737,-0.10476641,-0.06688756,-0.055,-0.078373335,-0.073773496,-0.06852577,-0.058580168,-0.04342026,-0.045,-0.052668698,-0.055796884,-0.02040338,-0.01910866,-0.05330961,-0.035,-0.035261124,-0.0518523,-0.04401606,-0.03727408,-0.028881658,-0.03,-0.018872205,-0.005458104,-0.004141111,0.0022932,-0.001334052,1.52E-17,0.016626205,0.024962239,0.007001014,0.003536181,0.022654744,0.02,0.019452367,0.017188404,0.018201893,0.03933405,0.0578575,0.055,0.02703354,0.039636593,0.04950108,0.031041533,0.055842694,0.05,0.028678712,0.044574562,0.05333663,0.05606346,0.062288042,0.08,0.08149996,0.07894098,0.076446414,0.07091317,0.08689274,0.065,0.048303686,0.055548307,0.060025014,0.08154734,0.065494716,0.075,0.08195368,0.048644025,0.061965372,0.05003205,0.049276892,0.06,0.03482727,0.05472373,0.049052123,0.036773197,0.06473827,0.065,0.05953111,0.06915001,0.09909044,0.09689302,0.07370017,0.09,0.07984875,0.069720395,0.07855727,0.063344605,0.06760202,0.065,0.041843362,0.043160923,0.041720614,0.032536294,0.03632044,0.04,0.036573514,0.027440561,0.025711797,0.032157123,0.028334752,0.02,0.015632834,0.013858951,0.019477922,0.026625354,0.0168828,0.01,0.023787959,0.014848072,-0.003620074,0.005571595,0.009091293,0.005,0.017180854,0.021413434,0.002310735,-0.00563053,-0.005225577,1.21E-16,0.004067493,-0.023304611,-0.005009468,0.023793316,0.001495849,0.015,0.006776318,-0.011964825,0.004985416,-0.006210754,0.004995524,0.015,0.004117829,0.016264211,0.018277485,0.002923008,-0.003602178,0.02,0.018944362,0.009940729,0.017181162,-0.002375282,0.016587079,0.02,0.001731971,0.02564655,0.007665617,-0.00190693,0.01716866,0.015,0.015724853,0.005482752,-0.004624557,-0.003075918,0.006514126,-0.005,-0.025180725,-0.0163072,-0.019307531,-0.014389699,0.001332677,-0.01,-0.024482446,-0.017201811,-0.00302468,-0.008552422,-0.009389895,-0.015,-0.025057172,-0.02562024,-0.036862236,-0.030292127,-0.032576665,-0.04,-0.03748212,-0.05393079,-0.04795127,-0.049934726,-0.05909978,-0.04,-0.03826538,-0.042599566,-0.03297623,-0.021001043,-0.020928804,-0.025,-0.03237504,-0.041619774,-0.03442779,-0.02662972,-0.01274674,-0.025,-0.038053192,-0.023697611,-0.049452398,-0.045346037,-0.024985181,-0.04,-0.024183575,-0.016648855,-0.02230635,-0.017404351,-0.008187471,-0.015,-0.03211036,-0.006873246,-0.008133289,-0.030247917,-0.023284597,-0.02,-0.014048805,-0.029412087,-0.030592555,-0.01936518,-0.03854696,-0.035,-0.03650734,-0.048373017,-0.035511505,-0.02957658,-0.029893706,-0.035,-0.052413788,-0.05463629,-0.04692148,-0.06362344,-0.06822393,-0.06,-0.073168814,-0.07279791,-0.06853089,-0.05793444,-0.03753982,-0.045,-0.058887366,-0.056775853,-0.036914915,-0.03185363,-0.040326055,-0.035,-0.04761694,-0.040168107,-0.004562992,-0.004434962,-0.008099429,0.015,0.021931697,0.01525394,0.03416478,0.046031192,0.0389553,0.04,0.03646464,0.028918276,0.017332502,0.006475941,-0.002140998,-0.015,-0.031069454,-0.044371,-0.023399632,-0.010006949,-0.028624192,-0.035,-0.03257494,-0.011656788,-0.01050373,-0.04059187,-0.037103515,-0.035,-0.045255717,-0.04174287,-0.058939043,-0.08108974,-0.078653514,-0.08,-0.082425974,-0.06466323,-0.06260689,-0.07080298,-0.0485666,-0.015,0.02520678,0.07376618,0.11145309,0.15221487,0.17510335,0.14,0.09648424,0.05186001,-0.067741044,-0.25539234,-0.48319063,-0.71,-0.8246771,-0.81416684,-0.759141,-0.66818714,-0.5525297,-0.445,-0.3158433,-0.21422309,-0.17385603,-0.12335527,-0.09972732,-0.1,-0.07038183,-0.057809655,-0.06262142,-0.05476428,-0.03727648,-0.045,-0.061280753,-0.045205165,-0.03846386,-0.028710436,-0.021051118,-0.035,-0.027950767,-0.017274832,-0.011323076,-0.011717619,-0.014528321,-0.01,-0.014754855,-0.009121735,-0.001658824,0.001375157,-0.001917502,-0.01,-0.001281897,-0.000688253,0.007328495,0.014794597,0.003200343,0.005,0.001382039,0.001249983,0.007865848,0.002622679,0.007226503,0.02,0.017826654,0.00673712,0.022758428,0.02577471,0.009150752,0.03,0.030452587,0.00579502,0.012951098,0.019614706,0.007905225,0.015,0.03414033,0.032199644,0.049017936,0.05621232,0.025093477,0.035,0.046916977,0.04228361,0.06467124,0.054941833,0.034587085,0.06,0.06911811,0.04616954,0.05666273,0.07109839,0.05038712,0.045,0.053937126,0.058382094,0.061650965,0.070685506,0.08618312,0.065,0.051497266,0.0710094,0.057924226,0.051704463,0.052529994,0.03,0.032700133,0.036857653,0.034862254,0.030681146,0.012745921,0.02,0.006966777,-0.015918493,0.006853767,0.013465347,0.01060356,0.01,0.00016342,0.0022109,-0.007407125,-0.007052843,-0.007603403,-0.025,-0.010047738,0.00569342,0.00213831,-0.00220341,-0.011947285,-0.015,-0.010589012,-0.009942743,-0.006862129,0.003091688,-0.009678724,-0.025,-0.012154369,-0.01138106,-0.018368805,-0.02143831,-0.017490866,6.06E-17,-0.006452601,-0.017042309,-0.011635515,-0.020533523,-0.031160656,-0.035,-0.040519312,-0.0281589,-0.015414161,-0.03528369,-0.043655977,-0.03,-0.0331953,-0.039293908,-0.04074172,-0.038089104,-0.03526931,-0.04,-0.03631578,-0.032006413,-0.0208162,0.00363832,-0.005337382,-0.03,-0.018422212,-0.014176574,-0.026292382,-0.02351226,-0.033089757,-0.04,-0.03147031,-0.02608814,-0.025875429,-0.03274597,-0.035334785,-0.035,-0.014273096,-0.01494674,-0.047554307,-0.025254454,-0.01174778,-0.025,-0.026850693,-0.045491923,-0.03132208,-0.021461815,-0.037220266,-0.04,-0.048495132,-0.055093486,-0.06797512,-0.054688867,-0.034155607,-0.05,-0.059119657,-0.06649363,-0.073063836,-0.07564344,-0.06738011,-0.065,-0.072279654,-0.05738165,-0.07656977,-0.07719875,-0.054717682,-0.08,-0.066508904,-0.05240854,-0.070219055,-0.0677635,-0.07151833,-0.075,-0.07217662,-0.053417116,-0.041939575,-0.05568393,-0.052513532,-0.04,-0.042486303,-0.056349423,-0.06249259,-0.06687597,-0.06348978,-0.07,-0.098060325,-0.092726305,-0.09599306,-0.092263885,-0.06189819,-0.085,-0.09839578,-0.07882594,-0.07397866,-0.076559156,-0.080122635,-0.075,-0.06370351,-0.045626976,-0.055933617,-0.07440164,-0.07571489,-0.08,-0.06980084,-0.08630303,-0.095515184,-0.092896864,-0.11170676,-0.095,-0.09761764,-0.09065585,-0.08201313,-0.126638,-0.10500016,-0.08,-0.106315576,-0.11676629,-0.12362988,-0.11590727,-0.1237131,-0.13,-0.10415157,-0.09305552,-0.077966735,-0.050642118,-0.053168673,-0.065,-0.048403233,-0.043016408,-0.039911225,-0.017450621,-0.030488523,-0.05,-0.046463344,-0.03608963,-0.026551617,-0.057746116,-0.09312324,-0.075,-0.05779048,-0.08020355,-0.09919187,-0.107519194,-0.0948241,-0.075,-0.09661891,-0.09046472,-0.07876693,-0.10281981,-0.08404645,-0.085,-0.117373794,-0.11797693,-0.1116019,-0.11257191,-0.13480426,-0.135,-0.11873886,-0.1354628,-0.13537942,-0.12081344,-0.11962796,-0.105,-0.07617657,-0.040282566,0.015851863,0.068807386,0.11566056,0.165,0.15009028,0.10306702,0.066928506,-0.000695804,-0.09991064,-0.3,-0.56477714,-0.7472787,-0.8447011,-0.8482219,-0.77298677,-0.69,-0.5850905,-0.45752138,-0.34595168,-0.25837982,-0.20818414,-0.18,-0.14503442,-0.1319032,-0.12228746,-0.117126055,-0.1383166,-0.13,-0.12386828,-0.11747362,-0.091578335,-0.11332076,-0.12274399,-0.11,-0.11963187,-0.11061012,-0.10269684,-0.105849326,-0.10493743,-0.105,-0.09332986,-0.086331725,-0.11703712,-0.12409406,-0.0833674,-0.09,-0.094766974,-0.07660986,-0.08565682,-0.062710196,-0.06529055,-0.085,-0.07091305,-0.07078908,-0.05012567,-0.06358883,-0.08988872,-0.06,-0.061407216,-0.06866529,-0.06139833,-0.05684481,-0.050670154,-0.065,-0.053763483,-0.053426277,-0.07599189,-0.049644556,-0.030010728,-0.045,-0.05391361,-0.059458714,-0.056143586,-0.04888841,-0.06444528,-0.075,-0.061755218,-0.0619765,-0.06644339,-0.064165205,-0.057373226,-0.04,-0.04589346,-0.061416656,-0.050506953,-0.03633673,-0.04243366,-0.05,-0.04185236,-0.035887122,-0.035083987,-0.045765452,-0.047485065,-0.025,-0.024290025,-0.016540356,-0.012403241,-0.039546035,-0.023432372,-0.01,-0.025476094,-0.012637029,-0.018107234,-0.032472465,-0.023131728,-0.025,-0.022419915,-0.015462001,-0.031089876,-0.030503629,-0.02087228,-0.05,-0.066372015,-0.05900139,-0.06251658,-0.057673,-0.06927274,-0.08,-0.06260039,-0.058655553,-0.061237745,-0.06977017,-0.07391605,-0.065,-0.07691373,-0.0832026,-0.07345997,-0.057822797,-0.05188773,-0.08,-0.08399107,-0.06653288,-0.06304296,-0.049600285,-0.059504583,-0.07,-0.050981574,-0.066457376,-0.09202379,-0.08500429,-0.08061985,-0.09,-0.09223094,-0.0753865,-0.07126567,-0.08348357,-0.07118589,-0.07,-0.09705739,-0.093824156,-0.07603658,-0.07508005,-0.06878698,-0.08,-0.09676444,-0.07586473,-0.076376386,-0.092386045,-0.069477715,-0.065,-0.07942052,-0.07665097,-0.0742231,-0.07717689,-0.08632179,-0.08,-0.08079278,-0.100880325,-0.08815159,-0.08327315,-0.102330595,-0.09,-0.0779783,-0.095453456,-0.09569401,-0.08271294,-0.10647486,-0.115,-0.09154157,-0.09695325,-0.09600774,-0.091329396,-0.10825688,-0.115,-0.119947866,-0.10945361,-0.08989106,-0.094207264,-0.10775572,-0.12,-0.117522195,-0.10592463,-0.10884654,-0.11713546,-0.10598401,-0.09,-0.105206065,-0.12064665,-0.11681999,-0.11378569,-0.10974319,-0.12,-0.12705013,-0.11242442,-0.11566022,-0.12648696,-0.103344604,-0.085,-0.10617607,-0.107781574,-0.09499315,-0.11482958,-0.1173078,-0.1,-0.099218346,-0.103029355,-0.107383035,-0.099689014,-0.08162928,-0.07,-0.058595475,-0.03716032,-0.028124036,-0.0382937,-0.026205465,-0.025,-0.044340197,-0.035985153,-0.022721412,-0.011749445,-0.032274127,-0.05,-0.014117102,-0.02252657,-0.040732644,-0.035656665,-0.060252488,-0.07,-0.07501934,-0.062245656,-0.059880864,-0.08842545,-0.069341384,-0.075,-0.10406768,-0.10048433,-0.10121818,-0.0999562,-0.11348906,-0.12,-0.12749892,-0.12360533,-0.09772657,-0.13624436,-0.1522698,-0.14,-0.14536348,-0.103997536,-0.10280764,-0.10023988,-0.051913008,-0.03,0.01837598,0.061179366,0.089156136,0.14183179,0.18062717,0.185,0.13301755,0.082566135,0.035936326,-0.1163517,-0.3628243,-0.62,-0.79228413,-0.83288515,-0.7996512,-0.7262041,-0.6305648,-0.525,-0.39456216,-0.29751983,-0.24328342,-0.18100588,-0.16078511,-0.17,-0.16170332,-0.15442044,-0.14260764,-0.14049068,-0.13177805,-0.125,-0.13631864,-0.11459778,-0.10340499,-0.11066016,-0.097585365,-0.105,-0.12369144,-0.118497245,-0.09877212,-0.10879553,-0.12476711,-0.1,-0.09603316,-0.11209632,-0.1001519,-0.098587334,-0.11787558,-0.105,-0.06936085,-0.059727706,-0.0593623,-0.062783495,-0.0711709,-0.075,-0.07658714,-0.065692365,-0.07231574,-0.079914965,-0.075921915,-0.095,-0.09353859,-0.08061264,-0.07751713,-0.06555122,-0.06540196,-0.055,-0.040094193,-0.0480721,-0.06769629,-0.08377368,-0.07122442,-0.07,-0.08570827,-0.07243689,-0.07784175,-0.07988067,-0.05170913,-0.08,-0.1112446,-0.09849904,-0.11202673,-0.1177109,-0.10271416,-0.1,-0.09665142,-0.084970206,-0.0796602,-0.09693237,-0.08421468,-0.07,-0.08972348,-0.07332964,-0.06357309,-0.06017189,-0.04346699,-0.045,-0.026990369,-0.03899316,-0.048479807,-0.010530874,-0.013632692,-0.015,-0.00350569,-0.016760634,-0.021196906,-0.029673547,-0.034760796,-0.035,-0.041306548,-0.023236597,-0.01644771,-0.04855019,-0.05227771,-0.045,-0.06328668,-0.06108485,-0.06683692,-0.07509993,-0.07083504,-0.085,-0.0666137,-0.04709993,-0.05637101,-0.063650526,-0.07634818,-0.065,-0.06992086,-0.08572809,-0.06727447,-0.06942871,-0.074537784,-0.075,-0.07746786,-0.06157498,-0.06715861,-0.07475639,-0.06335359,-0.075,-0.09835524,-0.09449683,-0.09080643,-0.10437231,-0.08997121,-0.08,-0.10218394,-0.101287805,-0.08946137,-0.09087685,-0.090086006,-0.1,-0.10692836,-0.09089577,-0.0802686,-0.06908466,-0.060212426,-0.07,-0.06567251,-0.07596018,-0.08665884,-0.057585437,-0.058591925,-0.07,-0.068226196,-0.07721557,-0.06743846,-0.08082358,-0.10766555,-0.1,-0.09441524,-0.09850095,-0.100050405,-0.09011502,-0.093386136,-0.115,-0.10827536,-0.10078377,-0.11390038,-0.12098215,-0.11251514,-0.11,-0.12857011,-0.1168792,-0.09570426,-0.10460613,-0.10396812,-0.105,-0.10225928,-0.096199006,-0.107463874,-0.11006353,-0.11680288,-0.115,-0.115836725,-0.13433276,-0.109897405,-0.09671518,-0.11824916,-0.12,-0.12867916,-0.12051162,-0.10056672,-0.11133688,-0.11327817,-0.1,-0.09436653,-0.105743274,-0.12742122,-0.124553666,-0.10081776,-0.1,-0.11840245,-0.1151172,-0.10582946,-0.10313694,-0.093531266,-0.1,-0.11360694,-0.118583925,-0.11870343,-0.10159855,-0.089357264,-0.095,-0.10324709,-0.11024457,-0.10648274,-0.1076295,-0.1149029,-0.095,-0.078530446,-0.096685335,-0.10977893,-0.0990139,-0.089813925,-0.105,-0.12090645,-0.103783794,-0.09246429,-0.11732961,-0.13675731,-0.14,-0.1529804,-0.14964843,-0.12717897,-0.1274851,-0.12182409,-0.11,-0.11970927,-0.107701816,-0.0990933,-0.11705161,-0.11962592,-0.125,-0.11990002,-0.09640347,-0.10189661,-0.09924471,-0.07754769,-0.095,-0.12681964,-0.1301159,-0.11576937,-0.109883614,-0.11599076,-0.115,-0.11860045,-0.11934207,-0.11061612,-0.12025779,-0.116907604,-0.105,-0.12177433,-0.1231133,-0.104426466,-0.11154111,-0.12581502,-0.11,-0.09445654,-0.10680099,-0.12560299,-0.12761202,-0.1127353,-0.12,-0.11990344,-0.097550735,-0.116512656,-0.1305834,-0.11712666,-0.1,-0.08076051,-0.08295385,-0.067285486,-0.06430283,-0.07306666,-0.045,-0.06619816,-0.0867095,-0.05402437,-0.057165723,-0.078335844,-0.095,-0.11293718,-0.12053095,-0.13547917,-0.146622,-0.13025159,-0.115,-0.11949777,-0.11860388,-0.1280561,-0.13334972,-0.11788311,-0.125,-0.11943748,-0.10720639,-0.13403983,-0.14398022,-0.13402937,-0.14,-0.14493228,-0.14502348,-0.14358786,-0.13696633,-0.12780488,-0.115,-0.11087395,-0.088902295,-0.025581697,-0.004651428,0.00836077,0.08,0.09952821,0.076564,0.052796252,-0.006533521,-0.083925895,-0.24,-0.46546167,-0.6781978,-0.84693944,-0.8892896,-0.8384921,-0.78,-0.68007576,-0.55553216,-0.4446318,-0.3395157,-0.2627061,-0.215,-0.18717596,-0.1804842,-0.16085069,-0.14996319,-0.16146846,-0.155,-0.15459202,-0.1431052,-0.11586231,-0.12913495,-0.1317198,-0.11,-0.12079449,-0.13434708,-0.13785474,-0.14773408,-0.12865017,-0.11,-0.12825511,-0.116625525,-0.09813289,-0.1089646,-0.095781125,-0.09,-0.10033704,-0.090610854,-0.0797824,-0.08357109,-0.0971811,-0.095,-0.0825936,-0.06840935,-0.07037399,-0.09103231,-0.0750706,-0.075,-0.080979936,-0.048026394,-0.07516806,-0.090721376,-0.05537211,-0.065,-0.055603586,-0.040807568,-0.04795319,-0.035884157,-0.05623785,-0.06,-0.03096307,-0.04526528,-0.061584584,-0.056115218,-0.03481012,-0.025,-0.050529838,-0.06487936,-0.0791121,-0.059346694,-0.023401903,-0.065,-0.080074504,-0.063135915,-0.08296202,-0.07103095,-0.06762027,-0.075,-0.049314182,-0.041343804,-0.05224437,-0.06419928,-0.063885435,-0.065,-0.072179064,-0.047693178,-0.02319101,-0.020786403,-0.034074213,-0.05,-0.030653926,-0.015701089,-0.027442625,-0.018345289,-0.010948624,-0.025,-0.029330539,-0.039101418,-0.048213065,-0.044288598,-0.059035443,-0.07,-0.076672584,-0.0929445,-0.09296712,-0.087937504,-0.07784074,-0.08,-0.09056751,-0.08439367,-0.08889618,-0.075989336,-0.05931909,-0.07,-0.08169046,-0.096973695,-0.07940187,-0.0651299,-0.082218684,-0.075,-0.085342586,-0.09624935,-0.078039676,-0.06473248,-0.047348294,-0.06,-0.08143431,-0.059346106,-0.048871078,-0.06706578,-0.061363153,-0.05,-0.067676134,-0.060758892,-0.042229984,-0.05724058,-0.050975077,-0.04,-0.05774525,-0.057408765,-0.059710413,-0.07183795,-0.049506206,-0.05,-0.067642406,-0.043297768,-0.05213768,-0.06388318,-0.05712623,-0.09,-0.07697065,-0.06433214,-0.086337954,-0.074165046,-0.09116346,-0.105,-0.10261991,-0.11474591,-0.114395276,-0.123765394,-0.11019567,-0.1,-0.098801374,-0.08391927,-0.10797884,-0.11035117,-0.10750531,-0.115,-0.08369046,-0.089522816,-0.106892295,-0.10461051,-0.103157304,-0.085,-0.0915502,-0.096842125,-0.08122437,-0.09370315,-0.11185021,-0.11,-0.10961242,-0.106000885,-0.09134937,-0.093140654,-0.10101383,-0.105,-0.095256604,-0.07275339,-0.091340914,-0.10557535,-0.10112038,-0.12,-0.11409374,-0.09983777,-0.103585936,-0.11563422,-0.1176627,-0.095,-0.10055861,-0.11774495,-0.1229416,-0.122500494,-0.10791822,-0.115,-0.11704244,-0.11196578,-0.11700734,-0.104257524,-0.10726586,-0.11,-0.11092019,-0.13547692,-0.13641544,-0.12814783,-0.12310717,-0.115,-0.12695087,-0.13556318,-0.13402326,-0.13651547,-0.1405063,-0.135,-0.124713644,-0.13302906,-0.12799613,-0.1105186,-0.1244201,-0.135,-0.12630239,-0.12407376,-0.12613948,-0.12212804,-0.11446719,-0.125,-0.12797904,-0.11387788,-0.122872755,-0.11999017,-0.11038728,-0.12,-0.10397037,-0.09918696,-0.10770942,-0.09653342,-0.11565808,-0.12,-0.10297655,-0.12563169,-0.11832221,-0.095994025,-0.11418788,-0.115,-0.105604395,-0.10158303,-0.10503978,-0.12843204,-0.11279278,-0.08,-0.06905879,-0.041827966,-0.03946567,-0.050026212,-0.024616906,-0.025,-0.047588184,-0.052268334,-0.04055368,-0.016561933,-0.025005424,-0.05,-0.057792556,-0.075853296,-0.09430325,-0.09032577,-0.07225883,-0.08,-0.08854158,-0.06632978,-0.07556634,-0.084884055,-0.08834763,-0.11,-0.1009605,-0.11301794,-0.11334716,-0.09059956,-0.115854025,-0.12,-0.1334768,-0.1514197,-0.13708133,-0.15155321,-0.12541935,-0.1,-0.11271779,-0.08168535,-0.06390269,-0.03853153,0.021287454,0.065,0.108973555,0.111523196,0.06636516,0.033573356,-0.012777246,-0.11,-0.2874458,-0.5438567,-0.7481024,-0.8324965,-0.8410553,-0.785,-0.71842426,-0.62891495,-0.48980582,-0.3835192,-0.2970136,-0.22,-0.18840311,-0.1695351,-0.14671077,-0.14058332,-0.14421102,-0.125,-0.12189338,-0.13437471,-0.13784142,-0.14510112,-0.11141158,-0.1,-0.109711334,-0.07803893,-0.088972464,-0.108062714,-0.10501881,-0.105,-0.09162243,-0.08820389,-0.07439606,-0.06345867,-0.0731336,-0.1,-0.11400241,-0.08499295,-0.0874576,-0.09152381,-0.07270234,-0.075,-0.07137237,-0.06287904,-0.03974949,-0.042189565,-0.060277104,-0.04,-0.041935705,-0.05042682,-0.051214393,-0.04218778,-0.009936392,-0.015,-0.02988887,-0.028879583,-0.030583574,-0.018646266,-0.010146461,-0.025,-0.036320396,-0.023454605,-0.020751256,-0.014793961,-0.006176242,-0.035,-0.047301393,-0.03322469,-0.029547205,-0.042697772,-0.062013354,-0.05,-0.0426815,-0.052697737,-0.04137126,-0.045926347,-0.061039217,-0.05,-0.040806394,-0.0340094,-0.027640343,-0.030254636,-0.016463028,-0.015,-0.02999806,-0.019784288,-0.015126715,-0.02138418,-0.012137037,-1.21E-16,0.000586816,-0.000415703,-0.001671699,-0.004622664,0.007210574,4.55E-17,-0.003671113,0.010658644,-0.011883614,-0.01813445,-0.023871617,-0.035,-0.011500455,-0.023251718,-0.026824294,-0.023859728,-0.04790556,-0.035,-0.03945492,-0.05883851,-0.042339057,-0.035694078,-0.03960064,-0.03,-0.04336428,-0.07021339,-0.062810965,-0.07451967,-0.08961337,-0.075,-0.07522945,-0.06923217,-0.08176657,-0.09707923,-0.08891774,-0.09,-0.0805132,-0.09197384,-0.101213686,-0.08155265,-0.06779064,-0.065,-0.07935389,-0.06953448,-0.070437185,-0.07802257,-0.04992989,-0.05,-0.054975078,-0.061321273,-0.06109984,-0.04749442,-0.06332655,-0.06,-0.06189716,-0.06933817,-0.059560645,-0.05886185,-0.04123475,-0.04,-0.04113169,-0.046078105,-0.060653668,-0.04325657,-0.068923764,-0.085,-0.056050286,-0.067179516,-0.06051733,-0.05181391,-0.07375886,-0.08,-0.092871085,-0.08878537,-0.07348318,-0.08579843,-0.08320652,-0.09,-0.10258201,-0.08257214,-0.08661368,-0.084993385,-0.07613833,-0.09,-0.07289368,-0.07971699,-0.09246412,-0.07497964,-0.095945716,-0.1,-0.080729134,-0.08608294,-0.09362546,-0.09533491,-0.10297058,-0.12,-0.10900785,-0.10087137,-0.10617748,-0.08623582,-0.088148646,-0.105,-0.11753437,-0.121248595,-0.10369421,-0.102587715,-0.11104271,-0.11,-0.10126221,-0.10205933,-0.10374063,-0.09052727,-0.09731346,-0.095,-0.095793165,-0.11151412,-0.084889,-0.080474384,-0.10208704,-0.095,-0.098204486,-0.101381905,-0.10022231,-0.09499612,-0.070988625,-0.075,-0.08508852,-0.09668918,-0.14378835,-0.125664,-0.075296395,-0.095,-0.10578264,-0.10974449,-0.11457275,-0.1026695,-0.12572522,-0.125,-0.10088207,-0.10663234,-0.11134025,-0.10803048,-0.10603656,-0.125,-0.120915115,-0.099817395,-0.11831194,-0.10127936,-0.08086301,-0.105,-0.10196089,-0.10614622,-0.122947514,-0.11611133,-0.11596385,-0.12,-0.12763733,-0.13580504,-0.13181964,-0.12885502,-0.116124436,-0.095,-0.07829993,-0.0634621,-0.05626927,-0.044381984,-0.04179191,-0.06,-0.06221187,-0.04941185,-0.040748484,-0.04083242,-0.038728286,-0.035,-0.050996065,-0.066174775,-0.07729653,-0.08747569,-0.08417476,-0.09,-0.10703026,-0.11615252,-0.10971452,-0.1035668,-0.09812968,-0.09,-0.09800245,-0.10542481,-0.12364661,-0.14757156,-0.15681604,-0.165,-0.15274416,-0.15047954,-0.15867808,-0.16363817,-0.16757621,-0.13,-0.12587422,-0.124845825,-0.07584467,-0.07300867,-0.036129273,0.03,0.056732595,0.110181525,0.12128015,0.08904495,0.07691751,0.04,-0.007707709,-0.10727707,-0.31663772,-0.56068397,-0.7568297,-0.835,-0.80916923,-0.7564726,-0.66199315,-0.5425473,-0.41867828,-0.295,-0.23648551,-0.19613431,-0.15175895,-0.14420222,-0.13138501,-0.12,-0.115481585,-0.12038235,-0.12354879,-0.102065295,-0.11609584,-0.135,-0.11900449,-0.10255523,-0.10536266,-0.1274905,-0.11499815,-0.11,-0.13016145,-0.11798231,-0.12002709,-0.123043224,-0.11436388,-0.115,-0.10609485,-0.10382125,-0.08690184,-0.07318868,-0.07318534,-0.05,-0.05472351,-0.0750782,-0.07087323,-0.071173705,-0.06855779,-0.06,-0.051744945,-0.045457296,-0.0440075,-0.03655481,-0.036403045,-0.05,-0.05978991,-0.05467053,-0.044046283,-0.036981966,-0.029272383,-0.04,-0.050738696,-0.046816736,-0.057402622,-0.04541529,-0.022894992,-0.025,-0.01612693,-0.02696959,-0.05390477,-0.038743265,-0.011934606,-0.02,-0.031115882,-0.025234573,-0.04552288,-0.052065574,-0.03991952,-0.055,-0.047603652,-0.052438147,-0.07858702,-0.06562827,-0.04049583,-0.025,-0.028571332,-0.030630644,-0.032652117,-0.031767458,-0.019239573,-0.03,-0.014757234,-0.012764941,-0.034046255,-0.007076747,-0.009044172,-0.02,-0.021851528,-0.03362546,-0.021168364,-0.022143865,-0.019032465,-0.035,-0.045171164,-0.018276898,-0.034741923,-0.033859152,-0.026698567,-0.035,-0.02700795,-0.056470867,-0.061510652,-0.058333285,-0.069345064,-0.05,-0.057800338,-0.050377127,-0.0354939,-0.048935577,-0.029756086,-0.03,-0.05035071,-0.038504455,-0.0372534,-0.038226362,-0.036765583,-0.055,-0.03777074,-0.01135534,-0.027055051,-0.025364187,-0.021977618,-0.04,-0.03749191,-0.03056945,-0.048799105,-0.058465805,-0.029484369,-0.04,-0.055841006,-0.018142119,-0.030778619,-0.04355683,-0.036626477,-0.055,-0.0418501,-0.05171886,-0.0588341,-0.052001655,-0.07896577,-0.06,-0.042758297,-0.054665357,-0.055268597,-0.061526906,-0.04562964,-0.04,-0.049510054,-0.054028586,-0.06876351,-0.06859198,-0.07865019,-0.085,-0.06659445,-0.07069079,-0.07611626,-0.0771168,-0.08535536,-0.07,-0.06581062,-0.090698674,-0.08978981,-0.07683098,-0.08152459,-0.09,-0.1006257,-0.07970131,-0.055720635,-0.0856243,-0.09812295,-0.08,-0.083168656,-0.08732579,-0.07827702,-0.06629346,-0.07280194,-0.08,-0.07387993,-0.089094274,-0.093608625,-0.08166686,-0.08620392,-0.085,-0.09183014,-0.10218079,-0.09458411,-0.09905775,-0.104344174,-0.09,-0.07982081,-0.08602366,-0.09419231,-0.09339801,-0.08235859,-0.08,-0.10871437,-0.12505694,-0.10686346,-0.08894645,-0.07855169,-0.075,-0.069839306,-0.0817076,-0.09215737,-0.07305166,-0.091749765,-0.1,-0.07086846,-0.08647613,-0.0959986,-0.08740799,-0.07602126,-0.06,-0.084711984,-0.09152308,-0.08219679,-0.093015395,-0.075160906,-0.075,-0.09150989,-0.07396577,-0.07494611,-0.076035514,-0.058918294,-0.085,-0.10218936,-0.09199459,-0.10132916,-0.084323935,-0.07798397,-0.1,-0.091680296,-0.0974059,-0.109623455,-0.10123582,-0.10069204,-0.105,-0.10936371,-0.11293879,-0.11483241,-0.095167845,-0.09383706,-0.115,-0.09031983,-0.08798422,-0.113434434,-0.11455878,-0.12133096,-0.115,-0.109077305,-0.11420301,-0.114803605,-0.10213018,-0.08383627,-0.1,-0.08831507,-0.054857314,-0.06361298,-0.059193216,-0.04267575,-0.035,-0.03006986,-0.030063858,-0.03394297,-0.05222562,-0.045935296,-0.035,-0.0606722,-0.067079745,-0.0718377,-0.09954396,-0.090742916,-0.09,-0.11173087,-0.08218295,-0.07094608,-0.08949873,-0.07754268,-0.09,-0.10258825,-0.08373767,-0.08544075,-0.11012703,-0.11990825,-0.12,-0.1341671,-0.12549163,-0.12092434,-0.12132795,-0.104155,-0.135,-0.149268,-0.121836424,-0.08690357,-0.048323,-0.04357405,0.005,0.067669675,0.10331383,0.13159893,0.08319728,0.033400208,-0.01,-0.10139015,-0.25257236,-0.4843631,-0.68710965,-0.8205807,-0.85,-0.80318236,-0.75371456,-0.6377984,-0.524669,-0.40777573,-0.29,-0.24895371,-0.18650278,-0.15888725,-0.15820253,-0.11250504,-0.12,-0.1326016,-0.11962903,-0.124308914,-0.121809945,-0.10688125,-0.1,-0.10512149,-0.10056629,-0.10246878,-0.09259253,-0.08101257,-0.105,-0.099893354,-0.08579507,-0.096434794,-0.07882341,-0.05900886,-0.075,-0.08260754,-0.06682908,-0.06979661,-0.07492333,-0.06902741,-0.065,-0.05963001,-0.06509688,-0.056973107,-0.039667025,-0.042031508,-0.06,-0.07144864,-0.05785336,-0.058180004,-0.055729583,-0.045036536,-0.06,-0.06122621,-0.059711687,-0.05522348,-0.05280642,-0.072378814,-0.05,-0.027820885,-0.044695955,-0.03340152,-0.016274942,-0.021716569,-0.03,-0.03601856,-0.021641953,-0.016094513,-0.039085265,-0.037285,-0.03,-0.031772513,-0.019025305,-0.010576607,-0.003151029,-0.020129472,-0.025,-0.00433372,-0.02101705,-0.019102672,-0.019576726,-0.021201888,0.005,-0.027453734,-0.03160503,0.002093765,-0.003283794,0.008031414,-3.03E-17,-0.00902669,0.016283588,0.01285521,-0.006436358,-0.009176866,-4.55E-17,0.005033094,0.00465429,0.004488573,-0.005358487,-0.015445173,-9.09E-17,0.008772119,-0.018268686,-0.023606747,-0.02225197,-0.030047532,-0.025,-0.038268767,-0.033531222,-0.039388012,-0.067158565,-0.04254163,-0.03,-0.055465538,-0.0697488,-0.06605114,-0.056084905,-0.04090795,-0.025,-0.03751789,-0.037965436,-0.038564473,-0.04226564,-0.023610063,-0.05,-0.04725041,-0.02848957,-0.05771515,-0.034693092,-0.029731141,-0.05,-0.023749243,-0.025800291,-0.04513033,-0.052530438,-0.054175694,-0.04,-0.025105298,-0.039054796,-0.056601796,-0.034239512,-0.04070023,-0.065,-0.05259557,-0.04472999,-0.027701784,-0.022349238,-0.036931884,-0.04,-0.056693915,-0.06270231,-0.058136676,-0.06139428,-0.06679026,-0.075,-0.06655787,-0.065553814,-0.055551745,-0.047346454,-0.08142322,-0.075,-0.06464715,-0.09460058,-0.07832602,-0.05518865,-0.062271312,-0.075,-0.08166743,-0.0661124,-0.057067607,-0.06341547,-0.07061108,-0.06,-0.048809793,-0.058840707,-0.057918463,-0.064385876,-0.06205338,-0.05,-0.06024517,-0.045960467,-0.04281392,-0.04904567,-0.040637057,-0.07,-0.0790521,-0.058113016,-0.056067403,-0.063740365,-0.06990586,-0.06,-0.0664193,-0.07523558,-0.06149642,-0.07434176,-0.09015402,-0.07,-0.058572255,-0.06649449,-0.05878992,-0.06860705,-0.09254168,-0.085,-0.086920165,-0.0974792,-0.086615995,-0.079071224,-0.08714896,-0.09,-0.0806663,-0.08161424,-0.07026161,-0.05909488,-0.072618,-0.07,-0.05688204,-0.053757034,-0.07912929,-0.1080241,-0.1099923,-0.115,-0.1038163,-0.09496784,-0.10987916,-0.115113854,-0.10793548,-0.1,-0.09774849,-0.075836904,-0.0764523,-0.09186066,-0.07921455,-0.11,-0.11689323,-0.08773065,-0.10088808,-0.09150101,-0.08105209,-0.1,-0.117650434,-0.12034541,-0.106776655,-0.106190465,-0.103981085,-0.105,-0.10966819,-0.11721626,-0.13252416,-0.113946125,-0.1002219,-0.11,-0.11064251,-0.10663721,-0.10558095,-0.11119581,-0.095577665,-0.09,-0.101414695,-0.08464838,-0.083555326,-0.08904923,-0.071313106,-0.065,-0.06275962,-0.040826526,-0.020639647,-0.03389602,-0.051390924,-0.045,-0.05076672,-0.06944016,-0.065617226,-0.082474716,-0.11200218,-0.09,-0.09765267,-0.116862044,-0.08207968,-0.091311716,-0.1101128,-0.105,-0.11949985,-0.105075516,-0.08957498,-0.09955858,-0.10641421,-0.12,-0.13704036,-0.1488222,-0.14650792,-0.13728382,-0.14157516,-0.14,-0.12537912,-0.13565944,-0.12951237,-0.08053923,-0.064446025,-0.04,0.020297553,0.057293523,0.09275207,0.12633236,0.1327231,0.085,0.023422355,-0.03659319,-0.23171319,-0.48285887,-0.65618116,-0.805,-0.86801904,-0.82551736,-0.7567695,-0.65350175,-0.5238377,-0.4,-0.29723564,-0.22205757,-0.17686762,-0.16106753,-0.15311956,-0.14,-0.1224832,-0.12190563,-0.1428613,-0.13862802,-0.116590165,-0.11,-0.109027855,-0.118020445,-0.11359775,-0.09348083,-0.09700969,-0.1,-0.099204496,-0.1009982,-0.10303481,-0.12304069,-0.11510848,-0.095,-0.0963284,-0.08308064,-0.0843036,-0.088861115,-0.078912206,-0.08,-0.06367648,-0.059348263,-0.06697308,-0.045463547,-0.04884012,-0.06,-0.038705807,-0.03219769,-0.038144015,-0.04239835,-0.051805455,-0.06,-0.06973961,-0.059358012,-0.04017754,-0.043294612,-0.05131355,-0.055,-0.046888035,-0.04589823,-0.050631087,-0.032610606,-0.046593655,-0.07,-0.045855444,-0.028805599,-0.037261255,-0.058790486,-0.055432968,-0.03,-0.04947791,-0.057861768,-0.04303578,-0.057120427,-0.05880277,-0.06,-0.0550219,-0.0326951,-0.050436582,-0.055497468,-0.032077644,-0.04,-0.045865025,-0.041906774,-0.03206802,-0.015012489,-0.02266903,-0.02,-0.000698353,-0.009654132,-0.012992187,0.008505096,0.007222089,-0.005,-0.000601561,-0.002486483,-0.010819934,-0.039339,-0.060048938,-0.04,-0.04248079,-0.044021867,-0.043868825,-0.067743436,-0.05606922,-0.06,-0.07206206,-0.062002737,-0.07231674,-0.06447046,-0.068332,-0.08,-0.086035885,-0.09849758,-0.071095295,-0.07861137,-0.040495355
