-0.105,-0.10707136,-0.10931505,-0.104714364,-0.110156864,-0.0980733,-0.105,-0.10308209,-0.09356185,-0.0939927,-0.08044531,-0.09444842,-0.09,-0.05620154,-0.07160746,-0.07433427,-0.03441464,-0.03454323,-0.06,-0.063428685,-0.08361699,-0.10282092,-0.09894426,-0.11418071,-0.125,-0.12829798,-0.13673411,-0.14862531,-0.16320199,-0.14473422,-0.135,-0.13374498,-0.115185045,-0.1198524,-0.10442753,-0.091230355,-0.11,-0.10616616,-0.11072831,-0.11201261,-0.09448898,-0.10318137,-0.11,-0.11626739,-0.13197075,-0.11850859,-0.11045396,-0.11411557,-0.1,-0.099652365,-0.09325196,-0.09835158,-0.130539,-0.11260508,-0.09,-0.099185884,-0.09532862,-0.07859152,-0.059778083,-0.075421244,-0.085,-0.05629753,-0.021792237,0.045657914,0.13684803,0.2194071,0.265,0.2928441,0.32281744,0.32122314,0.3171538,0.24640957,0.1,-0.017387077,-0.13756783,-0.21615413,-0.21264678,-0.17489193,-0.115,-0.08309961,-0.06606631,-0.059498895,-0.063930586,-0.040379915,-0.05,-0.07232836,-0.044786356,-0.036398076,-0.056537032,-0.045604624,-0.035,-0.048813492,-0.042088196,-0.030115543,-0.041128468,-0.050363008,-0.04,-0.02947077,-0.037418924,-0.040112514,-0.040736694,-0.03088741,-0.01,-0.017863298,-0.016281456,-0.005634099,-0.014279258,-0.021252977,-0.025,-0.012112876,-0.016291229,-0.031283416,-0.020157928,-0.02790258,-0.02,0.016543802,0.011755842,-0.014991662,-0.018152304,-0.008038689,0.005,0.031034008,0.033761974,0.014302593,0.018945046,0.018598549,0.02,0.041132286,0.05615307,0.06252647,0.058174934,0.06874965,0.08,0.08140946,0.10582339,0.10133474,0.091696426,0.12051904,0.125,0.12750517,0.13323879,0.12926108,0.14801645,0.14084755,0.14,0.18021642,0.18158509,0.17438023,0.19253872,0.2009229,0.205,0.1974279,0.19374284,0.21176058,0.2095184,0.18615028,0.185,0.19108321,0.18204913,0.1806495,0.17669657,0.1699294,0.175,0.1633443,0.15654397,0.1609359,0.14079197,0.14389065,0.15,0.10659201,0.10378464,0.117369406,0.07764491,0.072989784,0.07,0.03680766,0.04547754,0.04509122,0.03179039,0.028380632,0.015,0.00794916,-0.014042559,-0.014181731,0.003546563,-0.014443195,-0.02,-0.022816738,-0.026079912,-0.011530998,-0.023194,-0.03475692,-0.02,-0.010082207,-0.013015759,-0.017524833,-0.021480221,-0.018102748,-0.005,-0.007173123,-0.023590187,-0.037452903,-0.038190857,-0.027998697,-0.02,-0.017803779,-0.03562845,-0.03229334,-0.008608917,-0.025113238,-0.03,-0.011546649,-0.011913924,-0.021416605,-0.03415726,-0.026888639,-0.02,-0.0302358,-0.017139962,-0.009522507,-0.02591851,-0.0158087,-0.01,-0.030022325,-0.010123495,-0.003688469,-0.035874013,-0.025493406,-0.025,-0.044944867,-0.034798034,-0.026920287,-0.02413447,-0.03293187,-0.035,-0.004579694,-0.005424331,-0.040072702,-0.026927928,0.008763912,-0.01,-0.030951142,-0.022716954,-0.037454594,-0.05293876,-0.041530117,-0.03,-0.037915464,-0.039892975,-0.028833572,-0.033223648,-0.03421549,-0.035,-0.041164044,-0.026895545,-0.015990483,-0.024685265,-0.029469104,-0.02,-0.029519213,-0.05393036,-0.04583429,-0.032638922,-0.04263032,-0.045,-0.03137574,-0.036934588,-0.052760284,-0.045104038,-0.04000516,-0.04,-0.05039504,-0.06817326,-0.049464244,-0.031567574,-0.03613966,-0.04,-0.048368514,-0.052156426,-0.043095864,-0.032383513,-0.043754403,-0.055,-0.053554572,-0.06640849,-0.06636417,-0.04778879,-0.047439054,-0.07,-0.073507816,-0.054255642,-0.04629126,-0.035841137,-0.04349587,-0.05,-0.041950166,-0.07076978,-0.0785376,-0.06841259,-0.068457626,-0.055,-0.07485818,-0.080304235,-0.05703797,-0.055502832,-0.048453316,-0.055,-0.058106884,-0.043494117,-0.05468305,-0.056372378,-0.036830895,-0.04,-0.06145423,-0.07139606,-0.0647325,-0.059320055,-0.067076914,-0.07,-0.060847353,-0.0629038,-0.06315997,-0.048534367,-0.039331086,-0.045,-0.05137696,-0.036241885,-0.02989458,-0.048156004,-0.061993394,-0.065,-0.051863655,-0.05847834,-0.08163805,-0.06351588,-0.051212467,-0.07,-0.06804615,-0.05558005,-0.05779121,-0.058907412,-0.047136407,-0.04,-0.05212641,-0.056700505,-0.03620338,-0.033895902,-0.052193396,-0.04,-0.035132598,-0.06507806,-0.060984947,-0.040296894,-0.053395733,-0.05,-0.034705393,-0.04101528,-0.03139011,-0.026600298,-0.03538421,-0.025,-0.024085362,-0.021069225,-0.008628398,-0.012424818,-0.007798391,0,-0.004212544,-0.003623089,0.0070093,0.006178496,-0.02103081,-0.035,-0.032603122,-0.05933112,-0.090497844,-0.08356528,-0.07586293,-0.09,-0.0911502,-0.08712845,-0.07634221,-0.061810806,-0.072535284,-0.065,-0.05270259,-0.07134126,-0.06970978,-0.056226697,-0.054703087,-0.05,-0.056275267,-0.07623781,-0.07469195,-0.05121015,-0.05294218,-0.065,-0.052719895,-0.051488906,-0.07464158,-0.075728066,-0.05768978,-0.065,-0.071637094,-0.059642687,-0.049200848,-0.044673365,-0.051108565,-0.045,-0.039386947,-0.037218586,-0.01782919,-0.002293133,0.06447462,0.17,0.23905832,0.28809097,0.30894908,0.33366296,0.36159012,0.33,0.2773753,0.18780857,0.03455988,-0.0817053,-0.14071506,-0.185,-0.15195645,-0.0688563,-0.039766,-0.02963374,-0.018816302,-0.01,0.004751714,-0.002267489,-0.004303778,-0.008922492,-0.014210167,-0.005,-0.009525542,-0.003969532,0.001185111,0.001203562,0.004590125,-0.005,-0.00602268,0.000519641,0.012642656,0.012426547,0.011950149,0.025,0.016544275,0.017874612,0.01739165,0.018882884,0.029719781,0.01,0.012199312,0.015057049,0.009052916,0.027878905,0.027975973,0.015,0.011737589,0.039983585,0.04837108,0.03081343,0.04238779,0.04,0.055762608,0.05384286,0.030384613,0.057107836,0.050680604,0.05,0.05118624,0.024571827,0.051908422,0.063979276,0.06108776,0.065,0.07003947,0.09284615,0.07446552,0.07940288,0.10046874,0.09,0.11094195,0.11194505,0.10411119,0.12105938,0.118972294,0.13,0.14902826,0.14677371,0.14691037,0.1620927,0.16905133,0.15,0.14958183,0.1821872,0.18737096,0.16906273,0.17975692,0.205,0.20772682,0.19032487,0.18316397,0.18440825,0.17174569,0.16,0.16251561,0.17722018,0.17509067,0.16103324,0.15865617,0.135,0.12331603,0.12898797,0.11703011,0.11565413,0.10700762,0.095,0.0832446,0.0734584,0.07381591,0.048068814,0.041495774,0.04,0.024636842,0.029662501,0.010483955,0.010041246,0.011209763,-0.015,0.001310566,-0.002537648,-0.027073685,-0.02065125,-0.022122562,-0.04,-0.04742746,-0.029097097,-0.027900187,-0.024770033,-0.009593566,-0.03,-0.032156035,-0.03478234,-0.053267047,-0.023933338,-0.005207846,-0.015,-0.010680896,-0.013196891,-0.012059702,-0.003236376,-0.019963924,-0.035,-0.033904366,-0.03967536,-0.01640259,-8.87E-05,-0.023861073,-0.015,-0.018790115,-0.040928505,-0.01826192,-0.023617586,-0.039849542,-0.025,-0.02866272,-0.025502903,-0.016328162,-0.023788806,-0.031583488,-0.04,-0.040466677,-0.039877657,-0.03896691,-0.044231232,-0.05565586,-0.04,-0.029049233,-0.03474077,-0.03562469,-0.043340713,-0.045033924,-0.055,-0.062466502,-0.0443638,-0.04044327,-0.034911424,-0.017843217,-0.025,-0.04240216,-0.05076494,-0.043770067,-0.030850258,-0.030891426,-0.04,-0.064628474,-0.07720603,-0.055166565,-0.052839078,-0.053032055,-0.05,-0.073916994,-0.05621902,-0.04577811,-0.063504174,-0.0476641,-0.07,-0.0684957,-0.037713796,-0.06441536,-0.053627286,-0.042068537,-0.055,-0.044113286,-0.061234154,-0.0533809,-0.03083419,-0.04955286,-0.055,-0.049965285,-0.04862465,-0.037681375,-0.039279636,-0.0651303,-0.065,-0.037233964,-0.042911027,-0.052769344,-0.038003046,-0.02977547,-0.035,-0.036088638,-0.032465305,-0.0417591,-0.044011913,-0.04739199,-0.06,-0.044084888,-0.038272757,-0.0516968,-0.03632339,-0.03210448,-0.045,-0.03660186,-0.037275076,-0.03882904,-0.03702783,-0.059624285,-0.06,-0.04215024,-0.03306203,-0.031836312,-0.055248342,-0.05767041,-0.05,-0.05265342,-0.031040177,-0.028253494,-0.04665107,-0.048784085,-0.035,-0.032160968,-0.04614878,-0.03558681,-0.03251949,-0.039675202,-0.03,-0.03411267,-0.029824728,-0.022484599,-0.025920872,-0.025755236,-0.04,-0.03904131,-0.022027187,-0.041108754,-0.053992413,-0.023837121,-0.025,-0.045665015,-0.03261611,-0.035219822,-0.037777536,-0.0301207,-0.04,-0.035835214,-0.043172475,-0.050099883,-0.023626909,-0.023570808,-0.045,-0.046334617,-0.03866936,-0.030134512,-0.033518106,-0.039061524,-0.015,-0.005769242,-0.03184314,-0.02376083,0.002867277,-0.002982957,-0.01,0.006228481,0.016702365,0.013306931,0.027384376,0.026334045,0.005,0.027842246,0.044585414,0.01388779,-0.003486578,-0.013236561,-0.03,-0.02637197,-0.028696407,-0.04170208,-0.036896363,-0.043419152,-0.06,-0.052498907,-0.049569737,-0.06025091,-0.03474228,-0.009440218,-0.035,-0.03891171,-0.024348935,-0.024585022,-0.007732181,-0.014096203,-0.03,-0.026215157,-0.016600098,-0.005233986,-0.026142761,-0.032882117,-0.02,-0.02142745,-0.008298821,-0.007117484,-0.008872569,-0.00495009,-0.005,-0.003130151,-0.017434344,-0.013250962,0.006971239,0.008581094,-0.005,-0.003562354,0.012886711,0.020119054,0.060527954,0.109283395,0.185,0.284592,0.30669668,0.34881175,0.39293975,0.37022683,0.365,0.32802725,0.25898847,0.15472537,0.020637268,-0.050231475,-0.105,-0.12223656,-0.06979906,-0.030234098,-0.004751002,0.01154324,0.015,0.028117482,0.024128402,0.005484557,0.01749243,0.016535748,4.55E-17,0.012637826,0.01572898,0.016610915,0.009853313,0.007750332,0.03,0.018688424,0.012465405,0.013786159,0.011608441,0.02007895,0.01,0.0261894,0.024940139,0.010065887,0.025414791,0.018222386,0.03,0.029591724,0.015122838,0.029319003,0.028226703,0.030109202,0.015,0.026262391,0.05741542,0.026399149,0.018635746,0.030935343,0.035,0.03757165,0.027739964,0.056839585,0.06677014,0.048354954,0.06,0.06251083,0.048116416,0.048369993,0.0675158,0.06873772,0.075,0.091142535,0.076691836,0.08446279,0.095652305,0.09036592,0.105,0.10679087,0.0996083,0.10713745,0.14068983,0.15955524,0.14,0.13849251,0.14478932,0.16563348,0.18099016,0.16949229,0.195,0.20004013,0.17936116,0.18339081,0.17759894,0.19577017,0.205,0.1891614,0.20320357,0.19523625,0.18615325,0.20187353,0.19,0.17977849,0.17868206,0.16992643,0.17177838,0.16762395,0.15,0.14004838,0.14382522,0.1398987,0.113048814,0.10031645,0.11,0.099445336,0.07983956,0.0681359,0.05568702,0.05602005,0.055,0.038400277,0.026199698,0.02656261,0.031085217,0.021931386,0.01,0.014256727,0.010283702,-0.000153127,-0.000121795,-0.013874808,-0.02,-0.001764557,-0.005503769,-0.009842244,-0.005015677,-0.017143328,-0.01,0.000561748,-0.004464734,-0.004561886,-0.004772452,0.00136929,-6.06E-17,-0.005010644,-0.006762526,-0.013510578,-0.00494082,-0.00082327,-0.01,-0.011617629,0.002988926,0.012825563,-0.000837283,0.002080157,-3.41E-17,-0.014969749,-0.007657884,-0.004871181,-0.004520421,-0.004550182,0.015,0.025662212,-0.011071244,0.001438169,0.019317904,-0.009654197,-3.03E-17,0.01506462,0.014176407,0.014079974,0.008862926,0.016944002,0.015,0.008983676,0.015616708,0.009260309,0.006186045,0.017190494,0.025,0.03079609,0.015233269,-0.003058453,0.003056502,-0.001569051,0.005,0.012659281,-0.003663383,-0.000827566,-0.002421402,0.003040416,0.01,-0.001445713,0.016938118,0.007455519,-0.012845499,0.002763802,0,0.007089492,0.010806926,-0.001453431,0.002072896,-0.001129897,0,-0.002510418,-0.011979218,-0.00291653,-0.002643446,-0.010206677,-1.52E-17,0.001908757,-0.005860585,-0.002264473,-0.01043196,-0.020831399,-0.02,-0.020339223,-0.017006805,-0.009497103,0.005132066,-0.003943889,-0.01,0.002522963,-0.024051135,-0.018502532,0.002930434,-0.011887871,-4.55E-17,-0.010372581,-0.01315073,0.01405784,-0.008485945,-0.017751645,-3.79E-17,0.007533161,0.022311872,0.020303523,0.004755817,0.006795304,0.01,-0.010688042,-0.019557532,-0.008818498,-0.012656502,-0.007430477,7.58E-17,-0.009229548,-0.004474797,0.002523528,-0.002101106,-0.006081724,-0.015,-0.012367343,-0.004186796,-0.004639036,0.014392634,0.016930614,-0.005,-0.001889752,0.001498755,-0.000640463,-0.00039224,0.001479231,0.015,0.016807334,0.004943453,-0.003718946,0.00475865,0.001995224,-0.01,0.007726145,0.002010005,-0.004709581,0.007884417,-0.001528798,0.01,0.008470686,0.006234132,0.04203834,0.035736598,0.01213257,0.005,0.003225139,0.013847105,0.013212397,0.019444477,0.024291806,0.02,0.032990616,0.032972142,0.032797687,0.05345498,0.059771284,0.06,0.064315975,0.07216687,0.09221484,0.09018088,0.08007218,0.09,0.081987046,0.08655933,0.09638827,0.055208012,0.03567651,0.045,0.03620435,0.03374764,0.017269775,0.001670219,-0.001483046,-0.01,0.002726664,0.002385569,0.008053369,0.030188661,0.009827689,0.015,0.03570299,0.028167188,0.036477968,0.029260274,0.026907273,0.035,0.029324645,0.03647969,0.024032315,0.016325243,0.032681126,0.03,0.019778052,0.033707976,0.053455126,0.022502404,0.000242929,0.015,0.014097606,0.030432826,0.048240166,0.048819777,0.028780228,0.005,0.024028823,0.055420104,0.118772,0.20191844,0.28251973,0.365,0.39983597,0.43730915,0.46945354,0.4674035,0.4309917,0.3,0.14289345,0.016795713,-0.052371383,-0.070988685,-0.070108026,-0.005,0.034720626,0.04163044,0.076439545,0.085042424,0.084384434,0.065,0.056849074,0.06870972,0.05849703,0.07435631,0.07735995,0.065,0.06645274,0.055910625,0.059858076,0.06653905,0.071238935,0.07,0.060174078,0.06569649,0.07722385,0.08770668,0.07635153,0.07,0.079587124,0.080905326,0.09236703,0.08209375,0.07024915,0.08,0.079736516,0.08429179,0.08316892,0.089958556,0.09291695,0.075,0.08554275,0.102374755,0.10691662,0.10128611,0.10308379,0.125,0.106962256,0.084217794,0.08834821,0.0934686,0.11398172,0.115,0.112570696,0.12408923,0.12767647,0.15103821,0.15841459,0.15,0.1627032,0.16659246,0.16365337,0.16812423,0.1829953,0.185,0.18936586,0.21922271,0.20273574,0.18484871,0.20919678,0.21,0.2209891,0.22924185,0.22389609,0.24270448,0.23662989,0.235,0.24662556,0.23374797,0.24837881,0.25977984,0.24888346,0.25,0.22914694,0.2306632,0.26234925,0.25036043,0.23325637,0.22,0.20720117,0.23161243,0.21821322,0.17850287,0.18132775,0.165,0.14934704,0.1444437,0.103858076,0.101727925,0.113318,0.085,0.07919955,0.07515295,0.06744623,0.068970166,0.050847303,0.04,0.031784914,0.030824298,0.037097022,0.023979718,0.02015728,0.015,0.009985813,0.00517608,-0.002471221,0.009316806,-0.004299917,4.55E-17,0.025295584,0.014556921,0.025073735,0.02599608,0.022007843,0.035,0.014749185,0.000982362,0.000635651,0.021565435,0.032921694,0.01,0.021872407,0.019134281,0.004349045,0.013284825,0.00874265,0.01,0.009264363,0.025114382,0.037952933,0.01602374,0.016777027,0.01,-0.002275595,0.01657673,0.012849509,-0.004849728,0.003060204,0.015,0.018843196,0.02511271,0.018851364,0.006729937,0.011831219,0.015,0.006581882,0.005012299,0.02126277,0.03137266,0.02255667,0.01,0.003781267,0.016014569,0.01877222,0.016323974,0.02537809,0.005,-0.003946095,0.018347466,0.011852453,0.007802517,0.028206265,0.02,0.007679245,0.02675757,0.020951878,-0.000959232,0.008303338,0.015,0.00291446,-0.008649131,-0.008304799,-0.003371485,0.001472834,0.01,0.006778523,0.000300092,0.000260282,-0.000186503,3.61E-05,3.03E-17,0.000118027,0.001455813,0.012441617,0.011240172,-0.000808123,0.01,0.004465373,-0.010031255,0.00903446,0.010506106,-0.007079797,-0.005,-0.012714096,-0.010746455,0.014909768,0.007477252,-0.005341694,7.96E-17,0.002870045,0.017444937,0.01328106,-0.006817862,-0.009138157,1.52E-17,0.005863822,-0.00055586,0.006082668,0.008334313,0.006454197,0.02,0.009010173,-0.003955611,-0.008617939,-0.017092358,-0.006533359,0.01,0.012126261,4.89E-05,0.009237789,0.021874268,0.013328598,0.01,0.000453732,0.013781309,0.031404175,0.008912535,0.001183475,0.01,0.006502857,0.000363695,0.002175085,0.005626281,0.005215772,0.01,0.014268361,0.016691426,0.009063253,0.006412463,0.016562222,0.015,0.003591264,-0.013876837,-0.006076783,0.006663703,-0.000634028,0.01,0.007799947,-0.000968261,0.000941588,0.001334882,0.011551775,0.005,-0.000885804,0.003876024,0.007834161,0.007097153,-0.01403017,-0.01,0.013174107,0.010539656,6.45E-05,0.013290641,0.023895996,-1.89E-17,-0.002444771,0.000532277,-0.008508178,0.006243905,-0.004768675,-0.015,-0.000899128,-0.000139196,0.022766065,0.043612782,0.032910172,0.04,0.043234624,0.028227039,0.039128818,0.032470897,0.021404836,0.04,0.013554019,-0.013735796,-0.020969165,-0.041296203,-0.032380834,-0.045,-0.06278657,-0.039657004,-0.040613156,-0.051266655,-0.036404137,-0.035,-0.05415252,-0.04061795,-0.025200088,-0.041923642,-0.037106004,-0.03,-0.030973244,-0.02777025,-0.033681743,-0.02290155,-0.009317414,-0.025,-0.041010667,-0.025619434,-0.021964347,-0.0318676,-0.023360176,-0.025,-0.017734298,-0.012041952,-0.017253896,-0.014811845,-0.020274587,-0.005,0.00157216,-0.002207228,0.000517705,0.008040942,0.069565326,0.125,0.19824468,0.29862687,0.33610016,0.37035242,0.37631243,0.36,0.36564803,0.29544985,0.16332407,0.03787858,-0.05682776,-0.135,-0.16185236,-0.106393814,-0.06381457,-0.017982196,0.016062748,-0.005,0.00190462,0.001903712,-0.006336085,0.011295197,0.001064776,-0.005,0.005135659,-0.004055005,-0.015433991,-0.012137858,-0.003633138,-3.79E-17,0.000680269,-0.004601946,0.000752249,0.012447314,-0.005410202,-0.02,-0.003331644,0.002968229,-0.002855948,0.003367261,0.003943473,-3.03E-17,0.012062972,0.01883976,0.006130708,-0.001091555,0.000155911,1.52E-17,0.000395347,-0.001719508,0.007458832,0.016034752,0.008696373,0.01,0.00263375,-0.000970626,0.012303371,0.007368573,0.026796166,0.045,0.02228142,0.028566381,0.035105698,0.0314198,0.04709847,0.035,0.03129802,0.048922934,0.047724206,0.05498697,0.06678226,0.075,0.07631089,0.07407082,0.093161725,0.09865558,0.09635281,0.115,0.1288044,0.12919503,0.118113846,0.12802675,0.14638843,0.14,0.14768308,0.14891827,0.14772552,0.17805605,0.18197584,0.16,0.15430129,0.16104059,0.16846408,0.15933435,0.14952831,0.155,0.15216014,0.14027166,0.12604822,0.121802986,0.14485647,0.145,0.12943143,0.135135,0.110975325,0.09271822,0.09336596,0.075,0.071712546,0.045940965,0.018627385,0.031129342,0.027547756,0.02,0.016459258,0.010789635,0.006931464,-0.004748533,-0.010947153,-0.02,-0.02565249,-0.020576445,-0.023255708,-0.034163665,-0.033558525,-0.03,-0.04326617,-0.04092392,-0.027018666,-0.01526904,-0.018605098,-0.045,-0.03885769,-0.028704379,-0.027928436,-0.016988724,-0.028672846,-0.045,-0.059335455,-0.04839726,-0.03769075,-0.045474753,-0.018629102,-0.01,-0.018580444,-0.0346099,-0.04923949,-0.024578998,-0.02768428,-0.02,-0.014323584,-0.040067412,-0.013958165,-0.012198334,-0.030344814,-0.02,-0.035816938,-0.04645003,-0.0423818,-0.03794948,-0.03473892,-0.03,-0.020319112,-0.02549083,-0.03713337,-0.048955154,-0.04138984,-0.025,-0.028334087,-0.03856909,-0.05310421,-0.0413927,-0.031563543,-0.05,-0.031040192,-0.020238275,-0.04432298,-0.040540736,-0.04210119,-0.04,-0.019118134,-0.043848228,-0.05246016,-0.028849956,-0.051326673,-0.055,-0.03526522,-0.040434584,-0.033847075,-0.03164745,-0.042236052,-0.055,-0.057804294,-0.041367408,-0.047141194,-0.05559872,-0.048983585,-0.045,-0.031111317,-0.040810857,-0.054059803,-0.040093876,-0.054298114,-0.045,-0.016516674,-0.05961754,-0.071308345,-0.041411806,-0.045920864,-0.03,-0.027110644,-0.033546142,-0.032115344,-0.06188324,-0.047199182,-0.02,-0.04072663,-0.050806656,-0.04955233,-0.049958903,-0.050327826,-0.055,-0.06414931,-0.057987448,-0.042068828,-0.04965543,-0.047994986,-0.045,-0.05859919,-0.058042888,-0.050089624,-0.043268383,-0.05326276,-0.06,-0.049985006,-0.05963631,-0.06718592,-0.06433281,-0.064479284,-0.055,-0.053040806,-0.06395322,-0.060487606,-0.055189412,-0.06758975,-0.07,-0.07293114,-0.07668449,-0.056081243,-0.05251125,-0.0601821,-0.055,-0.058943395,-0.06029249,-0.06335301,-0.07294967,-0.067979,-0.06,-0.055981,-0.055083558,-0.07094478,-0.069053285,-0.04015371,-0.04,-0.046587974,-0.03822991,-0.049550634,-0.06462791,-0.07103506,-0.07,-0.049859036,-0.035350103,-0.05621964,-0.06990293,-0.036489476,-0.01,-0.010295374,-0.00388618,0.003867955,0.004384984,-0.001451843,-0.005,-0.00067452,0.000168285,0.000971282,-0.005036613,-0.029666565,-0.03,-0.01817054,-0.035252012,-0.04303059,-0.07073964,-0.0951667,-0.08,-0.09768058,-0.07908123,-0.049293976,-0.076750316,-0.07113926,-0.065,-0.06265299,-0.056079242,-0.063953444,-0.057817917,-0.067185916,-0.06,-0.057420652,-0.061478008,-0.050190136,-0.06693371,-0.05645929,-0.07,-0.07848818,-0.034219828,-0.058261223,-0.072375655,-0.052089535,-0.04,-0.038924266,-0.073623374,-0.0568513,-0.040055554,-0.049872957,-0.04,-0.049415197,-0.03960207,-0.039963044,-0.050130114,-0.022747008,0.02,0.08511562,0.1636502,0.25687572,0.31352124,0.314888,0.335,0.36677212,0.35723796,0.26445708,0.13282698,0.011450588,-0.09,-0.14693251,-0.17684405,-0.15114236,-0.09402908,-0.0586845,-0.03,-0.021357914,-0.008896964,-0.00954098,-0.022941118,-0.020497164,-0.035,-0.021068819,-0.006445751,-0.03296865,-0.049610298,-0.05454563,-0.035,-0.02330032,-0.033533223,-0.03637608,-0.0412028,-0.033006407,-0.035,-0.033130903,-0.022455433,-0.028081436,-0.011786319,-0.012700805,-0.015,-0.010350783,-0.038781904,-0.025612079,-0.01859513,-0.028787704,-0.01,-0.022460382,-0.017501447,-0.00888682,-0.014105675,0.002277954,-0.005,0.001816998,0.005361555,-0.001896279,0.007244883,-0.001034606,0.015,0.013894227,0.011404697,0.041600194,0.02334494,0.024960734,0.05,0.053995542,0.055057652,0.044496384,0.0694728,0.0910612,0.09,0.09198357,0.07969134,0.088336356,0.09558238,0.10363325,0.125,0.13275482,0.14927258,0.15682563,0.15537597,0.16096795,0.16,0.15469374,0.16808088,0.1930334,0.18133442,0.17034844,0.18,0.19160582,0.20520347,0.20234825,0.20747861,0.18813087,0.17,0.19279073,0.19109678,0.1927671,0.16969825,0.14569023,0.17,0.14700446,0.13230644,0.1268994,0.09525766,0.1102166,0.115,0.101611234,0.08706345,0.05883612,0.05822728,0.06573445,0.065,0.049334485,0.036837447,0.0453566,0.030125318,0.006781725,1.52E-17,-0.000418589,0.000823072,-0.001092964,0.001082804,-0.000717305,0,0.000917315,6.01E-05,0.013109913,0.000483646,-0.014559533,0.005,0.002870873,-0.003250878,0.001739783,-0.010340571,-0.007782179,-1.52E-17,-0.000469207,0.001414808,-0.003516231,-0.004753652,-0.005131193,1.52E-17,0.005709539,0.000330832,0.001306589,-0.002064832,0.002110823,0.005,-0.006143459,0.012890617,0.01536822,-0.005641245,0.009786739,0.02,0.01179268,0.004026918,0.018107833,0.049078025,0.027216243,0.015,0.044345826,0.02453541,0.020635683,0.04623964,0.023941433,0.02,0.028129261,0.009436142,0.023260524,0.034307823,0.017411789,0.025,0.0393285,0.03750789,0.031496212,0.030487098,0.028395213,0.015,0.021456322,0.030186864,0.015822152,0.017615868,0.012536122,0.015,0.03930124,0.026551777,0.020529421,0.024041198,0.02149825,0.04,0.03699906,0.034356084,0.0290837,0.0182791,0.018030493,-0.005,0.009058459,0.020812467,0.015096279,0.03595271,0.006757045,0.005,0.038608454,0.033315863,0.02469237,0.011162251,0.030533073,0.025,-0.002407746,0.024502186,0.022936918,0.01584038,0.019278387,0.015,0.013137519,-0.000354868,0.023080792,0.02238891,0.005045612,0.015,-0.003182563,0.007391802,0.011638615,-0.000612645,0.017354757,-4.55E-17,-0.004247268,0.012079719,0.003755911,0.010354558,0.020636456,0.01,-0.009194654,0.003786981,0.022469392,0.008284891,0.013471694,0.025,0.016384577,0.014391408,0.013884196,0.006923272,0.006128681,0.015,0.00363603,-8.34E-05,0.023911696,0.009334142,0.002988157,0.02,0.001929297,0.012069816,0.016154725,-0.004844314,0.01462071,0.01,0.001946018,0.016287304,0.009250129,0.01386671,0.012923118,-3.79E-18,-0.005304402,0.005656278,0.023791129,0.014756374,0.017023472,0.015,0.003733467,0.012728894,-0.002348891,-0.008049188,0.000439844,-4.07E-17,0.013200917,0.011228987,-0.004099573,-0.011191289,-0.002250108,0.005,0.000149291,0.00125679,-0.004172362,-0.002130674,0.00588063,0.005,2.10E-05,0.016139226,0.062883355,0.062304318,0.05208333,0.075,0.063639395,0.059614666,0.06867249,0.062346134,0.058627162,0.04,0.02203647,0.013056755,0.007414903,0.000117464,-0.025482103,-0.035,-0.024493117,-0.038736254,-0.04038847,-0.006227719,-0.002972009,-0.02,-0.0204554,-0.019677028,-0.020677986,-0.017200606,-0.010321882,-0.035,-0.044697467,-0.022492688,-0.036822237,-0.022683825,-0.007275545,-0.04,-0.038030304,-0.03464992,-0.0441598,-0.0361213,-0.036060657,-0.04,-0.028689917,-0.016609162,-0.03159881,-0.040348668,-0.033928607,-0.03,-0.021936303,-0.009958039,-0.006594574,-0.04038319,-0.038665567,0,0.013628004,0.0718915,0.14825012,0.21084099,0.27729553,0.33,0.37444925,0.3907563,0.4013465,0.36240074,0.23662044,0.1,-0.015987,-0.09953767,-0.17203923,-0.17986731,-0.11055804,-0.055,-0.006003203,-0.001971613,-0.010119925,0.013392985,0.006880934,6.06E-17,-0.000392871,0.00727428,0.003799156,-0.015203113,-0.007947527,-0.005,0.011396183,0.012944664,-0.000332629,0.006620569,-0.007986176,-1.52E-17,0.002905563,-0.002076135,0.011858141,0.000382128,0.021661973,0.025,-0.000255977,0.010050876,0.003590258,0.011861798,0.010954598,-0.01,0.010268201,0.021022148,0.021647716,0.024117839,0.013010783,0.015,0.023881238,0.030436063,0.041388407,0.03321569,0.02026648,0.045,0.052562643,0.047945227,0.06303077,0.045296997,0.04979629,0.065,0.050371386,0.058219127,0.056801375,0.06981477,0.09197199,0.095,0.10642959,0.08527783,0.09259899,0.121173136,0.107508846,0.125,0.1452597,0.13827841,0.13292663,0.15178905,0.17616831,0.155,0.16378358,0.17810531,0.16191779,0.1897347,0.19729362,0.185,0.19406565,0.19631504,0.20952442,0.21301791,0.19648512,0.19,0.21043023,0.21789832,0.19890639,0.20490605,0.20232323,0.195,0.20138057,0.1841721,0.16400303,0.15055294,0.15099177,0.145,0.12645145,0.12350576,0.11068659,0.10474111,0.09642877,0.08,0.08839195,0.08610714,0.07029786,0.052454807,0.037980575,0.03,0.028179172,0.037012175,0.025762623,0.020740412,0.017441696,0.005,0.01090005,-0.004970641,-0.003205323,0.01200059,-0.002107064,0.01,0.009645987,-0.01010158,-0.003964877,9.48E-05,0.000741646,0.01,0.01675697,-0.004249995,-0.01998472,-0.001204959,0.004116552,1.52E-17,0.000290771,0.001563235,0.008993494,-0.001546151,-0.009483889,-3.03E-17,-0.003476729,-0.006408149,-0.004137071,-0.004551461,0.000954494,-7.58E-17,0.003616016,0.00227634,-0.015231274,-0.009555794,0.000941374,0.005,0.003689446,-0.019974634,-0.019433178,0.00341545,0.009635653,0,-0.006083373,0.000799703,-0.00607584,-0.009324568,-0.012050234,-0.02,-0.002711746,-0.004060223,-0.010660658,0.006963894,0.001294292,-0.02,-0.026329113,-0.014350095,-0.011052876,-0.025663769,-0.022370094,-0.01,-0.017072884,-0.028988495,-0.026935808,-0.014689182,-0.011528919,-0.035,-0.043687917,-0.019860871,-0.018218873,-0.02618726,-0.017997162,-0.015,-0.026974212,-0.036210004,-0.032866288,-0.03618693,-0.019774789,-0.01,-0.036779422,-0.033914827,-0.015594315,-0.019139022,-0.039002318,-0.04,-0.028005237,-0.04501056,-0.03071119,-0.02529701,-0.052924585,-0.035,-0.023812471,-0.028745309,-0.036210794,-0.04753077,-0.04508633,-0.055,-0.048293315,-0.04099838,-0.0502657,-0.04913248,-0.049678564,-0.04,-0.042486742,-0.04820526,-0.044021484,-0.06445018,-0.06024639,-0.035,-0.042184055,-0.04961118,-0.05505677,-0.06955362,-0.06207727,-0.055,-0.05246645,-0.042334702,-0.05386394,-0.049021162,-0.041323602,-0.055,-0.042587142,-0.043764543,-0.053565193,-0.04837163,-0.04982279,-0.04,-0.038731128,-0.041343812,-0.04152296,-0.05647812,-0.058492813,-0.05,-0.061746217,-0.06468067,-0.040064562,-0.04767827,-0.052567635,-0.04,-0.05450263,-0.041181043,-0.039384983,-0.05145895,-0.04496369,-0.055,-0.04634383,-0.054020684,-0.05655927,-0.043114718,-0.057169996,-0.05,-0.053823724,-0.045758545,-0.048471835,-0.07509266,-0.043074645,-0.06,-0.084995106,-0.052612044,-0.06073504,-0.069614746,-0.056946144,-0.04,-0.041497942,-0.053705472,-0.03866217,-0.026680889,-0.018309524,-0.015,-0.004502676,0.016670331,0.017803835,0.003504384,-0.005138699,-0.005,-0.030495089,-0.032428917,-0.02753073,-0.06412022,-0.0619592,-0.07,-0.08727976,-0.07263027,-0.08880613,-0.10203278,-0.09892079,-0.085,-0.070774235,-0.06753669,-0.06332518,-0.06345633,-0.047734164,-0.07,-0.085699216,-0.05423457,-0.07150126,-0.07374188,-0.05343951,-0.06,-0.06004321,-0.059389457,-0.04414693,-0.045301303,-0.06898844,-0.075,-0.060302123,-0.036372673,-0.044109594,-0.0575776,-0.054598913,-0.055,-0.043060504,-0.03401935,-0.037837155,-0.041998792,-0.052052002,-0.045,-0.003673707,0.037394635,0.11337015,0.21774715,0.2669228,0.315,0.34613276,0.33752817,0.34066898,0.28191406,0.18585186,0.07,-0.05441827,-0.106188916,-0.16280082,-0.1762626,-0.106265455,-0.07,-0.033755828,-0.007284694,-0.014941081,-0.004803465,-0.01495838,-0.035,-0.030206846,-0.035443824,-0.021097187,0.006836064,-0.017596066,-0.035,-0.021474386,-0.01759546,-0.011318974,-0.02086728,-0.023054495,-0.01,-0.009810975,-0.011608285,-0.020826895,-0.01544868,-0.010703299,-0.015,-0.017103868,-0.03197804,-0.016861767,-0.015560449,-0.029029632,6.06E-17,0.002814123,-0.002827278,-0.001014213,-0.014495409,-0.007444052,9.09E-17,0.015404747,0.027190112,0.002055297,-0.010043378,0.009953426,0.025,0.01690594,0.015740983,0.024843913,0.024363935,0.024886968,0.02,0.033946738,0.05685629,0.04541913,0.053796314,0.0772652,0.07,0.068990625,0.068365686,0.06470318,0.085257694,0.10125322,0.1,0.110593736,0.13150232,0.13436355,0.13951704,0.15038332,0.14,0.15027753,0.16375372,0.1535489,0.15836145,0.16003777,0.175,0.18434244,0.15693241,0.17025365,0.1951274,0.18107593,0.17,0.16608152,0.15906778,0.1486999,0.14454465,0.14491089,0.145,0.14235675,0.12611859,0.11547925,0.11526334,0.11444122,0.105,0.09496236,0.09747845,0.08363141,0.06409028,0.059403975,0.055,0.051570494,0.037558213,0.02335228,0.028574362,0.0277461,0.005,-0.002468464,0.010645526,0.000488611,-0.013528096,-0.01512616,-0.01,0.004533479,-0.006572605,-0.021145694,-0.01919782,-0.019426038,-0.01,-0.016745506,-0.022402147,-0.003274852,-0.014116564,-0.030297274,-0.015,-0.012623439,-0.023971282,-0.02170339,-0.010167952,-0.005580963,-0.02,-0.030686235,-0.022331098,-0.02266788,-0.03365312,-0.02682884,-0.01,-0.008900764,-0.013607465,-0.017865673,-0.019261071,-0.014883135,-0.025,-0.027305068,-0.015955707,-0.017086437,-0.022614283,-0.031059105,-0.02,-0.004853767,-0.009592828,-0.01071563,-0.030281747,-0.037744503,-0.015,-0.017221097,-0.026015637,-0.02187378,-0.01972473,-0.019969959,-0.02,-0.028106023,-0.027879197,-0.008621312,-0.01796807,-0.029487928,-0.015,-0.013384996,-0.024313027,-0.036147308,-0.03188488,-0.03857812,-0.05,-0.032029245,-0.03784889,-0.048224054,-0.045274787,-0.057309642,-0.055,-0.045790758,-0.044056393,-0.049246136,-0.05724647,-0.05359349,-0.05,-0.054581814,-0.04993341,-0.04232586,-0.057395637,-0.05735162,-0.045,-0.046348665,-0.035372697,-0.044436797,-0.056323748,-0.04916608,-0.055,-0.059402045,-0.063699074,-0.06613327,-0.073632404,-0.065592684,-0.045,-0.06076614,-0.07323323,-0.079218954,-0.07605801,-0.071347095,-0.08,-0.05457643,-0.052419893,-0.06377947,-0.061027262,-0.07807263,-0.08,-0.085061856,-0.06974277,-0.059933685,-0.082059495,-0.07193934,-0.075,-0.07316413,-0.067717165,-0.08399209,-0.07377383,-0.0707533,-0.07,-0.07638308,-0.089976996,-0.090140134,-0.09724954,-0.087112315,-0.085,-0.08288803,-0.07283483,-0.07854931,-0.07189712,-0.08490885,-0.105,-0.11018786,-0.09743751,-0.072594486,-0.09166831,-0.09675058,-0.075,-0.08192406,-0.093715355,-0.092245996,-0.08066826,-0.08088794,-0.08,-0.08233633,-0.0941961,-0.09552637,-0.101540945,-0.07733581,-0.055,-0.07329119,-0.062187366,-0.03842281,-0.045159403,-0.048590913,-0.035,-0.041842774,-0.048605964,-0.04374481,-0.064973935,-0.06771936,-0.06,-0.06926516,-0.06880425,-0.07767267,-0.09868493,-0.11010599,-0.095,-0.09598202,-0.109175034,-0.096917845,-0.10657816,-0.108302236,-0.11,-0.1149994,-0.083057985,-0.094458394,-0.109911494,-0.09301118,-0.105,-0.11513515,-0.11228885,-0.105921715,-0.10727319,-0.108407654,-0.09,-0.09073051,-0.11462081,-0.1191963,-0.11583293,-0.12584344,-0.105,-0.091619454,-0.110193804,-0.1036805,-0.110557914,-0.105731264,-0.09,-0.108126655,-0.10198288,-0.08893153,-0.08150683,-0.07259774,-0.025,0.07100869,0.112989016,0.16234806,0.24480179,0.27850258,0.295,0.3088664,0.30196342,0.2389977,0.12751025,-0.001963302,-0.125,-0.19240087,-0.21858525,-0.21165653,-0.18010871,-0.12113528,-0.075,-0.0890324,-0.069225654,-0.04864518,-0.05606357,-0.05082213,-0.075,-0.06976249,-0.059691932,-0.06787328,-0.056313068,-0.06796511,-0.065,-0.067151874,-0.068966754,-0.05186131,-0.06646319,-0.048744556,-0.05,-0.08904386,-0.06824351,-0.045907117,-0.04493786,-0.053236235,-0.065,-0.04092298,-0.02773169,-0.04965902,-0.05043821,-0.033241864,-0.045,-0.04502607,-0.018732967,-0.018659202,-0.02883491,-0.043077078,-0.04,-0.015683724,-0.0288568,-0.028791225,-0.000180246,-0.002761288,-0.015,-0.012981051,0.008012079,0.015442521,0.011119192,0.03505002,0.035,0.023495305,0.0344328,0.03211538,0.041725315,0.05688747,0.065,0.071334444,0.062390506,0.08118824,0.1062907,0.10454523,0.115,0.12529886,0.12060797,0.12376657,0.13221005,0.12968583,0.145,0.16141586,0.14925016,0.16004555,0.16030033,0.1511555,0.17,0.16594283,0.17442505,0.17381229,0.14747836,0.1660256,0.18,0.17580096,0.16470097,0.14366433,0.15176912,0.16653576,0.16,0.13838638,0.12857553,0.11151457,0.09126683,0.108488515,0.09,0.055754423,0.06500886,0.074722335,0.081948,0.064091474,0.045,0.04739397,0.023838248,0.014757239,0.03013969,0.021048898,-7.58E-17,-0.009430791,-0.010427669,-0.009018528,-0.013843456,-0.03456517,-0.045,-0.032809712,-0.024118526,-0.029681541,-0.03735779,-0.040680137,-0.04,-0.022783915,-0.024947345,-0.046345413,-0.04070462,-0.041435417,-0.04,-0.03010412,-0.03110021,-0.03067289,-0.047484078,-0.04018446,-0.02,-0.021005617,-0.015682312,-0.03254167,-0.02719155,-0.01711826,-0.04,-0.024100423,-0.022509893,-0.03382151,-0.03068359,-0.040101785,-0.015,-0.013962605,-0.03742395,-0.025835153,-0.029414197,-0.034927156,-0.04,-0.050652966,-0.039691616,-0.032987323,-0.03739076,-0.047165964,-0.05,-0.04056056,-0.04596432,-0.048562407,-0.022839302,-0.011285429,-0.035,-0.042242516,-0.03082288,-0.032624528,-0.03531059,-0.034999534,-0.035,-0.03838575,-0.047583688,-0.0486049,-0.03186057,-0.01925998,-0.025,-0.0323908,-0.051897917,-0.06392865,-0.058052257,-0.06024768,-0.055,-0.06275101,-0.059673455,-0.04215557,-0.056702483,-0.04513356,-0.04,-0.05595958,-0.044589926,-0.05436402,-0.05741726,-0.04996666,-0.055,-0.058327235,-0.06384783,-0.051960453,-0.06364052,-0.06629527,-0.045,-0.06628196,-0.06345696,-0.054661166,-0.07988184,-0.07633941,-0.055,-0.04869197,-0.05820919,-0.0586333,-0.06524447,-0.074626766,-0.06,-0.06239175,-0.07247511,-0.08072724,-0.08257291,-0.060153645,-0.05,-0.06170186,-0.070896626,-0.0483315,-0.045832638,-0.065491356,-0.04,-0.052042473,-0.07347336,-0.0524302,-0.07230613,-0.076715864,-0.065,-0.08032678,-0.060528044,-0.04836958,-0.066529,-0.06307309,-0.065,-0.07905527,-0.07538345,-0.06113447,-0.055416085,-0.07483283,-0.08,-0.06049183,-0.07332731,-0.07737041,-0.059817817,-0.06757886,-0.07,-0.061760746,-0.052113626,-0.054178182,-0.07114135,-0.07532959,-0.08,-0.06578123,-0.045840196,-0.066076875,-0.083463676,-0.07826025,-0.07,-0.06895844,-0.07434496,-0.07470144,-0.075080834,-0.06741598,-0.055,-0.054526255,-0.053323194,-0.044166293,-0.0379648,-0.02656676,-0.01,-0.017341688,-0.01668123,0.014193301,0.014711826,-0.001668293,-3.79E-17,-0.0038367,-0.009374817,-0.031741276,-0.054694586,-0.034196198,-0.025,-0.045931473,-0.063802704,-0.075876325,-0.072889104,-0.076694265,-0.075,-0.060497347,-0.06460476,-0.059766166,-0.055617128,-0.060022973,-0.055,-0.058401093,-0.066644795,-0.072973035,-0.06550251,-0.059878193,-0.055,-0.048126087,-0.060883958,-0.049714874,-0.050148316,-0.05845523,-0.045,-0.07083029,-0.06585345,-0.052985106,-0.06784975,-0.04510445,-0.05,-0.05372137,-0.04095471,-0.052724943,-0.043480802,-0.03481339,-0.04,-0.056592878,-0.059740633,-0.031429555,-0.002246738,0.06235308,0.165,0.24875407,0.29329494,0.3401379,0.37046796,0.35732573,0.355,0.2977837,0.16893762,0.033938415,-0.08898204,-0.14618221,-0.16,-0.13200249,-0.07137853,-0.040440757,-0.023473646,-0.0055925,0.02,0.010801139,-0.005240914,0.005563736,-0.015775299,-0.0175227,-0.015,-0.014400314,0.002089595,-0.0244673,-0.02236738,-0.011491252,-0.025,-0.004756855,0.006958586,0.001191052,0.002787559,0.02517253,0.03,0.007353765,0.004343421,0.006960995,0.021525867,0.01628405,0.01,0.033388343,0.027857747,0.028215818,0.026055126,0.021640172,0.035,0.029052759,0.049866997,0.060447194,0.047386073,0.06401747,0.07,0.06989977,0.06432165,0.061132018,0.086956754,0.09971097,0.085,0.07801556,0.09430449,0.10190279,0.10030121,0.105863966,0.105,0.10840024,0.116452575,0.12708159,0.13923755,0.1463048,0.15,0.13828857,0.12983672,0.15032059,0.16874637,0.15690315,0.165,0.20141864,0.19859298,0.18323782,0.1866337,0.18461207,0.195,0.21688265,0.22699869,0.2383821,0.2552701,0.24591827,0.23,0.2306525,0.22277553,0.2197592,0.21842316,0.21476957,0.21,0.19922645,0.2141586,0.21676199,0.2003653,0.20682557,0.2,0.1783263,0.16498326,0.15049155,0.13508135,0.13606194,0.13,0.121678494,0.14288324,0.113241345,0.08119731,0.102568775,0.075,0.057930097,0.061432768,0.049173813,0.05767888,0.033014197,0.025,0.03764507,0.015599765,0.009381694,0.010508598,0.023366326,0.02,-0.000539324,0.010644285,-0.003026713,-0.01566407,-0.009912825,-0.01,0.011889403,0.009328785,-0.009711472,-0.007184821,0.00178057,0.005,-0.000178796,0.002793508,-0.011651884,-0.01714038,0.002845405,0,2.30E-06,-0.009443226,-0.011213645,0.012261313,-0.006436607,-0.02,-0.005952414,-0.008520532,-0.007141291,0.004008433,-0.004188213,-0.025,-0.005473376,0.00069786,-0.01969001,-0.000671358,-0.010026798,-0.01,0.020596368,-0.002226846,-0.006037556,-0.004787129,-0.027573178,-0.02,-0.02352167,-0.01790294,-0.007644712,-0.02826244,-0.021337135,-0.02,-0.03622165,-0.018964717,-0.022682814,-0.03734791,-0.028762404,-0.035,-0.035105743,-0.044469576,-0.044360496,-0.017954018,-0.04892075,-0.05,-0.010048523,-0.03190644,-0.03787892,-0.041025173,-0.062172163,-0.055,-0.05033499,-0.048329543,-0.05732625,-0.06828933,-0.07680835,-0.07,-0.04901736,-0.06723877,-0.057069283,-0.050656155,-0.08352237,-0.06,-0.055221446,-0.06947651,-0.060615607,-0.07873788,-0.0770637,-0.07,-0.079271786,-0.07996779,-0.07789946,-0.06360502,-0.061646022,-0.075,-0.087501384,-0.09420007,-0.07816593,-0.070744984,-0.081091784,-0.07,-0.07043111,-0.0893075,-0.06763287,-0.06825255,-0.09766358,-0.08,-0.080678985,-0.09359704,-0.08412067,-0.08629855,-0.07739198,-0.075,-0.0802961,-0.07883858,-0.081520885,-0.07821583,-0.073706366,-0.065,-0.07600689,-0.08500654,-0.07431971,-0.086280175,-0.08153613,-0.07,-0.074929096,-0.07569013,-0.088595726,-0.08599623,-0.08037148,-0.08,-0.06572898,-0.074122466,-0.08194793,-0.082617074,-0.104264855,-0.1,-0.07209189,-0.07781623,-0.09009257,-0.0912094,-0.093764946,-0.07,-0.07015169,-0.08313622,-0.0632272,-0.093737416,-0.10459071,-0.06,-0.073906906,-0.08581351,-0.07649084,-0.09157466,-0.08641363,-0.065,-0.06512258,-0.09741654,-0.09533552,-0.058295358,-0.06954245,-0.065,-0.043389145,-0.06000277,-0.045573,-0.02610607,-0.0236867,-0.02,-0.035284176,-0.012676221,-4.40E-05,-0.03203865,-0.033635918,-0.04,-0.042769533,-0.03215615,-0.04478212,-0.061909847,-0.0765238,-0.07,-0.08365676,-0.10164328,-0.084273174,-0.09892777,-0.08823273,-0.065,-0.08028316,-0.06425087,-0.06866824,-0.079100534,-0.06318812,-0.07,-0.069168486,-0.08880165,-0.09997659,-0.0681096,-0.081644386,-0.1,-0.0827059,-0.076054305,-0.07324854,-0.07804487,-0.07908605,-0.08,-0.0944763,-0.08545738,-0.07871571,-0.077317655,-0.070850864,-0.09,-0.07684815,-0.055854365,-0.06678516,-0.0503746,-0.039681766,-0.02,0.056416232,0.14542933,0.20962417,0.2507599,0.2927656,0.31,0.3088773,0.3119821,0.27831775,0.18553077,0.05466538,-0.04,-0.12514123,-0.20294338,-0.1775789,-0.118784286,-0.06998288,-0.035,-0.027917698,-0.010551597,-0.020485988,-0.029791772,-0.025591437,-0.03,-0.012422688,-0.016422993,-0.033906005,-0.03285068,-0.023052817,-0.025,-0.032386847,-0.013470577,-0.01418127,-0.008122178,0.003840011,-0.02,-0.0173861,-0.016208386,-0.018491955,-0.007359016,-0.0173146,-0.015,-0.006112786,-0.000438595,-0.005706797,-0.018135056,-0.014163014,-0.02,-0.021678459,-0.012632328,-0.007603062,-0.016048437,-0.030750532,-0.01,-0.001008935,-0.023406733,-0.01592814,-0.002322331,-0.005357313,6.06E-17,-0.002788929,-0.010670072,-0.007518362,-0.000983719,0.018464962,0.01,-0.003620328,0.021842139,0.018685754,0.03159043,0.05545006,0.035,0.048428327,0.07289835,0.07290872,0.057597492,0.059331376,0.09,0.08632666,0.09393816,0.097432435,0.09387873,0.12428493,0.11,0.120816305,0.1519133,0.12615952,0.12392537,0.13004018,0.14,0.15267922,0.12960911,0.13392246,0.15451598,0.13382646,0.12,0.1413615,0.14562671,0.13234322,0.13093789,0.13551193,0.12,0.07949226,0.08121676,0.0906606,0.065120876,0.06753951,0.07,0.061770957,0.043272056,0.016579004,0.027107617,0.027520647,0.015,0.004225259,-0.014839856,-0.006895112,0.000190104,-0.006540012,-0.02,-0.035221152,-0.02429021,-0.023499377,-0.04097149,-0.038001038,-0.035,-0.041437544,-0.020968372,-0.005923612,-0.032566313,-0.036871918,-0.015,-0.021350995,-0.034726895,-0.03328732,-0.038908247,-0.04443704,-0.03,-0.027447594,-0.041372262,-0.04937333,-0.057913087,-0.052728336,-0.045,-0.042030923,-0.030934028,-0.034407828,-0.042125717,-0.045667604,-0.04,-0.028052239,-0.055606406,-0.07809264,-0.06251397,-0.054025814,-0.045,-0.04342848,-0.048035283,-0.03799319,-0.037110128,-0.054398008,-0.07,-0.054192133,-0.0500649,-0.07257802,-0.0631988,-0.06211041,-0.065,-0.050384667,-0.057237193,-0.05860344,-0.05278101,-0.042692486,-0.045,-0.05660692,-0.043486405,-0.05947702,-0.066475354,-0.04922842,-0.075,-0.09526456,-0.084348194,-0.06058404,-0.058296476,-0.063335516,-0.045,-0.06708095,-0.090120845,-0.07343841,-0.071159616,-0.060729112,-0.045,-0.06896413,-0.08179787,-0.06594036,-0.07698132,-0.07788757,-0.075,-0.07888014,-0.054998368,-0.07117012,-0.08350318,-0.06890149,-0.075,-0.06975865,-0.0788356,-0.072510764,-0.077847384,-0.08611048,-0.045,-0.07043694,-0.091299415,-0.08693079,-0.10969362,-0.06225135,-0.045,-0.07838108,-0.070198424,-0.063616164,-0.06505504,-0.06547519,-0.07,-0.07081504,-0.06783954,-0.07549692,-0.06983507,-0.06764399,-0.085,-0.060611397,-0.05510533,-0.076147124,-0.08439884,-0.102254674,-0.09,-0.07632253,-0.06496855,-0.06275877,-0.080114536,-0.07307066,-0.075,-0.06775524,-0.06486386,-0.0732039,-0.0708197,-0.0882348,-0.085,-0.083997205,-0.075929455,-0.05649909,-0.073297314,-0.07265869,-0.065,-0.06483916,-0.06863827,-0.06820835,-0.07881124,-0.10048032,-0.07,-0.07034671,-0.075421594,-0.05684004,-0.06942066,-0.05787571,-0.08,-0.08551325,-0.07111673,-0.08923532,-0.06047387,-0.057837155,-0.055,-0.047505863,-0.04654081,-0.00508185,-0.01565119,-0.023194427,-0.02,-0.018479627,-0.011332902,-0.028376143,-0.004499557,-0.037141234,-0.055,-0.02086186,-0.06810604,-0.0714795,-0.063178174,-0.07446551,-0.07,-0.093757965,-0.07914192,-0.06844965,-0.07891708,-0.09372929,-0.09,-0.048526205,-0.0525063,-0.04212664,-0.024581911,-0.056892823,-0.065,-0.04798344,-0.040781897,-0.056435313,-0.066333055,-0.06509669,-0.065,-0.060461752,-0.055524897,-0.043810334,-0.058848765,-0.05425259,-0.02,-0.034299396,-0.04948544,-0.03368526,-0.02293837,-0.025318848,-0.02,-0.030425983,-0.03784387,-0.002773729,-0.00746078,0.011366522,0.095,0.16851825,0.25673673,0.30995643,0.3485423,0.38176584,0.365,0.3703976,0.32675403,0.19715573,0.061741,-0.06235585,-0.14,-0.1696892,-0.14525177,-0.08096855,-0.045129526,-0.017683083,0.02,0.015734369,-0.008732929,-0.004426783,-0.000589136,-0.005529159,-0.005,-0.015666084,-0.035284776,-0.020180617,0.006083267,-0.008880494,-0.005,0.002274646,-0.002909174,0.017923357,0.005992231,0.002667529,0.01,-0.001418643,0.013750258,0.00609458,0.002974685,0.009006426,3.79E-17,0.009266784,0.005381512,0.011322172,0.010925594,0.000108834,0.015,0.016237047,0.013680363,0.018430024,0.030269763,0.035014834,0.045,0.054210648,0.025963033,0.044573195,0.065982774,0.048123103,0.06,0.053272802,0.049152117,0.062079147,0.06759006,0.07629485,0.085,0.108232714,0.09589311,0.08434243,0.12106403,0.13450797,0.125,0.119220875,0.13211516,0.1461499,0.14413257,0.15271117,0.165,0.16632792,0.16301313,0.19144513,0.21101862,0.1847033,0.185,0.19871332,0.21049672,0.22898348,0.20650841,0.1911823,0.21,0.19874932,0.19817625,0.22393766,0.21126434,0.20686609,0.21,0.19854088,0.2141681,0.20120554,0.18183759,0.18364856,0.16,0.15378562,0.15393122,0.14610541,0.1423548,0.12686244,0.12,0.11629799,0.109235436,0.09533358,0.08083083,0.080240935,0.075,0.058614347,0.04544436,0.046569094,0.042609368,0.047279168,0.045,0.016846538,0.025480019,0.02146244,0.000797814,0.011794725,3.03E-17,-0.002528809,0.003601035,-0.002744702,0.01291545,0.019260433,0.01,0.001217991,-0.001041141,0.000758037,-0.00033772,-3.98E-05,-3.79E-18,0.004591052,0.002161803,-0.000845271,1.46E-05,0.000446357,-5.31E-17,-0.009446229,-0.004081731,0.002796876,0.008105434,0.007915425,-0.005,0.007825545,0.002872068,-0.009133078,-0.003668824,-0.003544247,0.015,0.000973755,-0.012279862,0.004872752,0.004845863,0.017191647,6.82E-17,-0.014014529,0.007304901,-0.010456821,-0.016239047,0.010050385,0.02,0.000724601,-0.018207926,-0.004010335,-0.00434176,-0.014898537,0.005,0.016991287,8.96E-05,-0.004453221,0.000228375,-0.005347294,0.005,0.002905907,-0.00423597,0.00513738,-0.006380297,-0.008858846,-0.01,-0.013283192,0.009541703,0.012736271,0.000719265,-0.005971449,-0.005,-0.00729607,-0.01799494,-0.005587136,-0.012301746,-0.024388697,-0.01,-0.014380341,-0.005789438,-0.001444632,-0.010729677,0.009057802,0.005,-0.005692016,-0.006920397,-0.028510844,-0.023531344,-0.008504955,-0.005,0.000539882,-0.007376359,-0.008695565,-0.004460606,-0.012158073,-0.02,-0.012666604,-0.005980129,-0.017196903,-0.008037765,-0.001732274,-0.02,-0.017100967,-0.011014384,-0.005241508,-0.000417539,-0.012075481,-0.01,-0.012135753,-0.022996439,-0.008451491,-0.001159023,-0.018187575,-0.02,-0.022486791,-0.029642379,-0.015549732,-0.019425448,-0.01680765,-0.005,-0.019420313,-0.008964064,-0.011359475,-0.017359145,0.001720316,-0.015,-0.006179778,0.009243936,-0.018276002,-0.0223383,-0.014263155,-0.015,-0.019209519,-0.02049649,-0.020334084,-0.017891858,-0.016140506,-0.025,-0.008256845,-0.012805529,-0.034025654,-0.017763155,-0.030264309,-0.04,-0.018758507,-0.003636203,-0.0020394,-0.024626343,-0.02866101,-0.025,-0.018987983,-0.000477547,-0.007049124,-0.018840572,-0.02566083,-0.015,-0.004033501,-0.010561136,-0.007637266,-0.012802967,-0.007791569,-0.005,0.003555361,0.034424417,0.022466457,0.02003128,0.04384643,0.06,0.079827644,0.06439139,0.049500898,0.049295273,0.05235037,0.065,0.04117353,0.028209101,0.045010988,0.040497135,0.027512737,0.015,0.01018791,0.005157679,-0.006062327,-0.001120497,0.0053541,0.005,0.002554248,-0.015504285,-0.013420979,0.015732944,0.018757336,0.02,0.018718006,0.000457552,0.005376879,-0.000319088,-0.002700989,0.01,-0.007086172,-0.006143711,0.002089805,-0.009568313,-0.008990729,-0.005,-0.000609148,-3.28E-05,0.001412231,-0.004803563,-0.014912211,0.005,0.01285726,-0.00506564,-0.012383002,-0.005887152,0.006758913,-2.65E-17,-0.011198414,0.007066622,0.04310605,0.10334698,0.18605655,0.25,0.31102228,0.3742327,0.40657628,0.43727818,0.42542115,0.34,0.23873891,0.1006224,-0.03568645,-0.10631475,-0.13164517,-0.11,-0.059823707,-0.021130433,-0.011182192,0.015344681,0.047406472,0.03,0.02792526,0.02477512,0.008071904,0.032047182,0.03793464,0.025,0.020324845,0.026802871,0.044057682,0.031837214,0.019321341,0.02,0.022835338,0.034266472,0.029196428,0.015287627,0.01724622,0.035,0.03315906,0.024610898,0.040550303,0.032308035,0.02072493,0.04,0.042308625,0.03393118,0.03758895,0.030827425,0.032998558,0.055,0.055761136,0.06257469,0.072649926,0.04881699,0.041231472,0.055,0.07581506,0.083479226,0.058115795,0.051538795,0.06153907,0.065,0.06826825,0.083073124,0.092145704,0.082329966,0.099698424,0.1,0.09455292,0.12740217,0.114370674,0.090914324,0.110702574,0.135,0.13696076,0.13352938,0.1507967,0.14429222,0.14933665,0.165,0.1501054,0.16639468,0.17708652,0.17879915,0.19769289,0.195,0.19358848,0.20406897,0.21658789,0.2112495,0.21903369,0.225,0.1957049,0.2205624,0.23461694,0.20556594,0.21297136,0.215,0.20754246,0.18776658,0.17772618,0.17698239,0.16447316,0.175,0.1406751,0.113923,0.14553651,0.14401878,0.11935438,0.09,0.0960567,0.093426034,0.050244734,0.059302468,0.06176827,0.045,0.03808726,0.02645533,0.03876531,0.023981862,0.003789324,0.005,-0.004350322,-0.00110236,-0.003771673,-0.013363482,-0.021653164,-0.02,-0.009426599,-0.020440709,-0.026431883,-0.024065372,-0.018809164,-0.025,-0.036974456,-0.018364243,-0.022208802,-0.027803458,-0.013871336,-0.025,-0.029489959,-0.039483424,-0.04561863,-0.038372707,-0.038868275,-0.02,-0.025429765,-0.036537293,-0.020404749,-0.03462488,-0.05143697,-0.05,-0.031051716,-0.010192865,-0.032941367,-0.043007612,-0.021128556,-0.02,-0.03332468,-0.032250363,-0.012901966,-0.015408115,-0.03141311,-0.025,-0.0353467,-0.049430348,-0.03384417,-0.033319842,-0.039322257,-0.025,-0.019590713,-0.02044154,-0.022115374,-0.037764557,-0.05905145,-0.07,-0.051432397,-0.023440167,-0.025967764,-0.04867777,-0.046036366,-0.02,-0.033440642,-0.054051615,-0.040358815,-0.044189014,-0.042622503,-0.035,-0.040822584,-0.033427812,-0.04475427,-0.04612831,-0.03483146,-0.045,-0.04433604,-0.055972032,-0.0570542,-0.061987463,-0.079074934,-0.04,-0.05390246,-0.08440547,-0.04211989,-0.052246004,-0.061987218,-0.045,-0.0593359,-0.047210854,-0.038968913,-0.047918145,-0.050530378,-0.05,-0.044213995,-0.053461015,-0.04977074,-0.048170168,-0.06821829,-0.065,-0.055360004,-0.05492728,-0.057688303,-0.07060886,-0.07406064,-0.065,-0.064720824,-0.060133297,-0.05082341,-0.05952844,-0.058184985,-0.055,-0.06469652,-0.060797114,-0.063046195,-0.06286288,-0.053571746,-0.05,-0.049411837,-0.04928233,-0.03926854,-0.05421902,-0.056349795,-0.04,-0.070639424,-0.06158731,-0.031239029,-0.03910407,-0.04070551,-0.055,-0.041414693,-0.02566624,-0.052322738,-0.048258804,-0.033870783,-0.035,-0.03835076,-0.04952609,-0.062436357,-0.06146752,-0.041112956,-0.035,-0.031730827,-0.02758896,-0.03260338,-0.027787514,-0.0312897,-0.03,-0.02857908,-0.03273419,-0.026175767,-0.035368215,-0.03948414,-0.04,-0.038329445,-0.020958854,-0.025064966,-0.019018047,-0.011579867,-0.035,-0.040913675,-0.039590858,-0.035185155,-0.020391405,-0.027902303,-0.035,-0.03737546,-0.050907638,-0.03791629,-0.023941046,-0.044371553,-0.04,-0.009001453,0.000117507,0.001702741,0.006159107,0.004769461,0.01,0.012209396,-0.002471075,0.000485127,0.012498253,0.002346717,3.79E-17,0.00559292,-0.004084961,-0.01444591,-0.004896154,-0.016664281,-0.06,-0.059123613,-0.048034113,-0.048648197,-0.036770914,-0.04728262,-0.035,-0.026520154,-0.040123824,-0.022015376,-0.025337482,-0.028322332,-0.025,-0.035848424,-0.025011443,-0.036388613,-0.053927332,-0.04766178,-0.03,-0.025445597,-0.054730583,-0.05373733,-0.04494988,-0.04940897,-0.04,-0.048721276,-0.04191528,-0.033045523,-0.04275542,-0.0319843,-0.03,-0.04336649,-0.04220803,-0.021732131,-0.016381554,-0.01830924,-3.03E-17,-0.00048727,0.028868739,0.114130795,0.19668156,0.2665952,0.295,0.31732076,0.34712636,0.3305677,0.31678283,0.27426428,0.15,0.021612426,-0.0727553,-0.12952131,-0.15944782,-0.14671718,-0.08,-0.049498484,-0.050664965,-0.03457641,-0.0288112,-0.016761774,-0.015,-0.033772178,-0.026777465,-0.014624444,-0.015749834,-0.014863352,-0.02,-0.025669815,-0.019492019,-0.029215403,-0.03961563,-0.007357211,3.79E-17,-0.024580983,-0.009094593,0.003885531,-0.001692986,0.000465831,-5.31E-17,-0.002595655,-0.022443378,-0.029057935,-0.006049672,-0.007341018,-0.01,-0.003268421,-0.017866472,-0.012162758,0.004424758,0.005218731,0.01,0.005965387,0.005629721,-0.003620253,-0.016095057,0.004123545,5.31E-17,-0.003434839,0.006922041,-0.0121601,0.011562838,0.04166866,0.03,0.029340986,0.029701907,0.032912064,0.035508208,0.05011101,0.07,0.05276427,0.0592286,0.07568296,0.057445135,0.07136049,0.1,0.10512917,0.09864777,0.07600864,0.084327914,0.10618932,0.095,0.11765101,0.13363753,0.115473054,0.1360514,0.13721046,0.14,0.16140519,0.14462394,0.16012193,0.16437659,0.14419447,0.16,0.14142403,0.12766793,0.14527886,0.14166752,0.1407127,0.14,0.12795538,0.11405553,0.105292514,0.09634373,0.09617484,0.095,0.072566435,0.07310304,0.065410316,0.033646207,0.024169864,0.02,0.03237865,0.029870275,0.00955426,0.011308838,0.003059123,0.01,0.017198032,0.003771583,-0.007445791,-0.026263572,-0.01607312,-0.015,-0.027097836,-0.012924016,-0.028265802,-0.030105187,-0.013567172,-0.015,-0.013022369,-0.028750194,-0.019271031,-0.013686481,-0.030438267,-0.01,-0.024323331,-0.026642391,0.008283087,-0.01367136,-0.02338734,-0.02,-0.023504388,-0.001601858,-0.009994237,-0.020911435,-0.021868616,-0.035,-0.016064018,0.002764963,-0.010156023,-0.024654139,-0.030651309,-0.03,-0.025707534,-0.022586457,-0.011666355,0.005732729,0.003086509,7.58E-17,0.001965502,-0.009976279,-0.002807532,-0.006639737,-0.033780456,-0.025,-0.009715084,-0.015203288,-0.008393177,0.00206564,-0.007417709,-0.005,0.002763396,-0.017824387,-0.008202504,0.003826288,-0.017599428,-6.06E-17,-0.002973093,-0.029263703,-0.011373959,-0.017234666,-0.022839889,-0.01,-0.020208295,-0.003208009,0.000265565,-0.02979297,-0.013559111,-1.52E-17,-0.02235595,-0.022798412,-0.022486867,-0.032352936,-0.022021646,-0.015,-0.015410029,-0.014446411,-0.012808674,-0.0003152,-0.00865671,-0.015,0.000225236,-0.014261855,-0.016035955,-0.001606341,-0.005417159,3.79E-17,-0.011805198,-0.013170745,0.003067124,-0.003298408,0.001812891,-3.03E-17,0.002152925,0.007634874,-0.011957612,-0.002995448,-0.002461546,-2.27E-17,0.029712496,0.007085373,-0.006183407,0.009090395,0.004239101,0.01,-0.004790061,-0.01707892,0.003850943,0.009462829,0.003362449,-0.01,-0.005381326,0.02168188,0.01927832,0.005092179,-0.007829419,-0.01,0.012115909,0.011725451,-0.002602703,-0.005376477,-0.004363133,-1.52E-17,-0.000131076,0.001234223,-0.004453217,-0.000492389,0.010456841,0.005,0.0176453,0.015357358,0.012620764,0.02786969,0.004880152,0.015,0.03351647,0.008545996,0.01024738,0.014741095,0.01592996,0.015,0.016215676,0.035497285,0.023667471,0.016262792,0.025844652,0.025,0.03733553,0.04433969,0.04992463,0.067001976,0.07537009,0.07,0.06461527,0.07293263,0.09077825,0.09178123,0.078951836,0.09,0.07411424,0.034003057,0.032589924,0.0242185,0.021613536,0.025,0.014452374,0.024168927,0.016145376,0.00252199,0.01301568,0.025,0.021695916,0.024133565,0.051113587,0.03929099,0.018663064,0.02,0.018399892,0.025386125,0.004399264,0.008451985,0.02379554,-3.03E-17,0.014492303,0.028040435,0.021272581,0.017979035,0.016160872,0.025,0.004981053,-0.003245404,0.019957779,0.032921925,0.027947092,0.025,0.039123833,0.035028595,0.043938633,0.044345297,0.024629954,0.065,0.11210387,0.16818637,0.26591557,0.34820732,0.3828272,0.395,0.44982398,0.4633546,0.41287178,0.34618905,0.19555873,0.065,0.003444675,-0.06490857,-0.07576041,-0.03113554,-0.0008674,0.02,0.054357044,0.06528481,0.055082012,0.06360556,0.050496634,0.045,0.06048477,0.04645084,0.03628891,0.034106344,0.043601956,0.055,0.04450679,0.062108755,0.06500434,0.03491207,0.044633392,0.06,0.07121139,0.08175025,0.058313325,0.05282063,0.06703404,0.075,0.08581105,0.068697795,0.05764545,0.068455756,0.06376796,0.07,0.07284165,0.056734174,0.06083965,0.0739636,0.07459013,0.075,0.07925365,0.082803085,0.09003323,0.09601569,0.08777471,0.09,0.11659277,0.11454352,0.09762548,0.1121255,0.10615088,0.1,0.12659542,0.12889273,0.123140134,0.12660077,0.13905041,0.16,0.16018292,0.17032285,0.1895748,0.17487407,0.15363064,0.18,0.21041368,0.19691889,0.20436631,0.21567623,0.21039622,0.225,0.22969887,0.2365629,0.23918755,0.23491383,0.24042192,0.235,0.24200985,0.25536266,0.26636824,0.2570535,0.23957106,0.26,0.25893924,0.24519953,0.24279661,0.22987854,0.22408722,0.22,0.22583629,0.20400737,0.18218958,0.19348267,0.17480801,0.165,0.15467006,0.14058097,0.15283309,0.14416978,0.14073199,0.135,0.113340974,0.10140037,0.10356652,0.109486714,0.08393492,0.075,0.077524334,0.06526166,0.06456119,0.04648172,0.048353657,0.06,0.05784827,0.071227945,0.05721074,0.04297689,0.044241406,0.035,0.04241422,0.047987897,0.041295487,0.051204287,0.059636425,0.05,0.05790594,0.054055218,0.039375816,0.058515213,0.05081326,0.05,0.07448699,0.06591578,0.07427254,0.08698068,0.07697022,0.055,0.046226613,0.07120638,0.06821619,0.05886496,0.051391974,0.035,0.059158552,0.07293532,0.06641826,0.06245461,0.054300383,0.06,0.060539365,0.06024096,0.056505565,0.059416912,0.07699858,0.065,0.05815657,0.06381721,0.053050756,0.061845973,0.076122046,0.07,0.06822175,0.07880961,0.074415736,0.06105613,0.05940124,0.045,0.04157232,0.059193686,0.05392648,0.052064873,0.06105509,0.06,0.052834943,0.03957285,0.048597638,0.052400466,0.03890947,0.05,0.047381163,0.046924587,0.06398121,0.053114895,0.044524055,0.04,0.04187766,0.05764768,0.060887404,0.068525344,0.061549198,0.05,0.06273207,0.06663169,0.061650176,0.04855703,0.04036704,0.055,0.06544419,0.05598404,0.044805568,0.044676606,0.03184686,0.035,0.05509981,0.043167807,0.04635237,0.054307822,0.036778234,0.035,0.035718653,0.034103062,0.03658864,0.04469513,0.055893417,0.045,0.037827898,0.056751113,0.069250874,0.04851171,0.028797133,0.04,0.042264853,0.031187436,0.032024544,0.03598141,0.034504265,0.035,0.03618718,0.027219368,0.025861586,0.019138712,-0.003089464,0.01,0.037959784,0.03773302,0.032600258,0.027300496,0.026094906,0.035,0.023723513,0.017186802,0.03837872,0.034071222,0.025719812,0.035,0.026663527,0.026922394,0.030994937,0.03190703,0.04077822,0.03,0.027027395,0.045057505,0.052009158,0.048044547,0.044421613,0.04,0.03519435,0.033590164,0.022305775,0.023927165,0.036380053,0.04,0.05395514,0.04783682,0.05260679,0.0655419,0.048042867,0.075,0.096339084,0.091952644,0.09272377,0.06412676,0.08290022,0.095,0.06253198,0.06027625,0.035990734,0.016856577,0.012955252,0.005,0.011500241,-0.004090215,0.010454432,0.033118796,0.009742967,0.005,0.010942279,0.002683106,0.000276193,0.00789453,0.002738424,1.52E-17,0.010507785,0.000904345,0.00817522,0.011527751,-0.00692535,0.005,0.007320231,-0.000712036,0.001148382,-0.000639888,3.84E-05,-1.52E-17,0.005040022,-0.001885994,-0.002297784,0.006675211,-0.001724981,0,0.000747182,-0.000459593,-0.002006619,-0.004507963,0.000387919,0.01,0.08778906,0.1859948,0.23802869,0.29347718,0.3442866,0.395,0.4331324,0.41881585,0.3362536,0.1969162,0.065009214,-0.06,-0.14416863,-0.14360833,-0.102633566,-0.049823996,-0.021445718,0,0.016123217,0.005324004,0.011481759,0.011688629,-0.00190672,-0.005,-0.012817216,-0.020913547,-0.011886231,0.004758819,-0.002460929,4.55E-17,0.010990066,0.001529193,0.001067489,-0.001322051,0.008178022,0.01,-0.001904999,0.014744144,0.002542267,0.001882159,0.026454518,1.52E-17,-0.008254351,0.002601494,-0.002826569,0.014073598,0.025099512,0.02,0.016405514,0.007431733,0.005784646,0.012591722,0.015256307,0.015,0.010261163,0.01733606,0.035311617,0.04085446,0.03870109,0.025,0.033558596,0.06276384,0.060297806,0.064631425,0.06858964,0.06,0.07272822,0.073904335,0.066865996,0.07577363,0.10035426,0.115,0.114027314,0.11858011,0.10411555,0.105187565,0.12146673,0.12,0.13596019,0.1487603,0.15227883,0.15669551,0.1684846,0.18,0.1777335,0.19701664,0.18892369,0.17550334,0.19874099,0.195,0.19821256,0.19380362,0.17888689,0.1891104,0.18309174,0.185,0.17867702,0.16973494,0.18148816,0.16647577,0.16120575,0.16,0.13440375,0.12291312,0.13241516,0.14090441,0.11798032,0.085,0.07853696,0.08597409,0.07642591,0.059499465,0.045970097,0.02,0.033270165,0.047981363,0.0093517,0.004912759,0.01415206,3.03E-17,-0.004072893,-0.012239232,-0.015265442,-0.017134547,-0.02665697,-0.03,-0.03010258,-0.029730119,-0.030402377,-0.02967106,-0.029808858,-0.02,-0.005380516,-0.015363445,-0.03854852,-0.04353071,-0.026046803,-0.015,-0.011201976,-0.009785781,-0.025816796,-0.026469385,-0.013748097,-0.02,-0.017879989,-0.006930455,-0.022159522,-0.026226666,-0.00132068,-0.015,-0.03199258,-0.019047895,-0.02684549,-0.016262004,0.000863018,-0.005,-0.004103626,-0.013541985,-0.009366518,-0.009131272,-0.026480084,-0.01,-0.002800579,-0.01311695,-0.021080365,-0.044862565,-0.047599986,-0.03,-0.025185911,-0.0202646,-0.00610064,0.001488188,-0.000966607,-0.01,-0.023067614,-0.029384531,-0.027754784,-0.013657538,-0.011565071,-0.015,1.73E-05,-0.018396895,-0.035602193,-0.027590323,-0.02978871,-0.02,-0.031879496,-0.02722891,-0.008654218,-0.036908593,-0.02374392,-0.025,-0.06478759,-0.038458496,-0.02290936,-0.04130311,-0.038074654,-0.035,-0.047927078,-0.04485882,-0.022838838,-0.032297254,-0.03924442,-0.04,-0.05159265,-0.031449333,-0.029009959,-0.04273808,-0.033001468,-0.04,-0.05500581,-0.043143008,-0.031745784,-0.058343943,-0.06765025,-0.045,-0.043752514,-0.047884364,-0.05625885,-0.05674618,-0.0364009,-0.04,-0.05962932,-0.04291447,-0.023379123,-0.056144197,-0.060667053,-0.04,-0.057738926,-0.0539549,-0.05355802,-0.05829118,-0.043141898,-0.05,-0.047173146,-0.042633664,-0.047929417,-0.052634705,-0.0529246,-0.03,-0.027643401,-0.033476822,-0.023495514,-0.019500835,-0.028294126,-0.045,-0.033238,-0.033777963,-0.06063249,-0.06319458,-0.059948433,-0.06,-0.05324418,-0.03385998,-0.03657203,-0.054023378,-0.04212998,-0.045,-0.047378406,-0.0382635,-0.044439156,-0.04469472,-0.051753037,-0.045,-0.025538502,-0.03627018,-0.05394531,-0.052665647,-0.050978802,-0.06,-0.04924063,-0.034316685,-0.040074117,-0.047087222,-0.042414878,-0.025,-0.035279367,-0.04676007,-0.026433773,-0.01927124,-0.013070274,-0.01,-0.01153225,-0.001880675,1.47E-06,-0.000214171,-0.006610764,-0.005,0.004897926,0.001119993,-0.000398321,-0.011742344,-0.026361844,-0.02,-0.01739469,-0.03926008,-0.059938267,-0.057097595,-0.056031484,-0.065,-0.06949441,-0.07482706,-0.08870014,-0.08269544,-0.048814714,-0.045,-0.06338864,-0.06491269,-0.0690145,-0.076839074,-0.06685514,-0.065,-0.09592524,-0.09207361,-0.071366355,-0.0879064,-0.08843699,-0.085,-0.06961138,-0.06581273,-0.09821842,-0.07373784,-0.063804366,-0.085,-0.070226505,-0.08905616,-0.10302886,-0.09051998,-0.08255726,-0.065,-0.06369242,-0.07030806,-0.08566342,-0.08155709,-0.019793034,0.055,0.122119315,0.18517385,0.24501799,0.27790615,0.28034884,0.29,0.2825054,0.21934955,0.09095481,-0.054412283,-0.14997523,-0.205,-0.21483369,-0.17799857,-0.1343923,-0.09517978,-0.07222438,-0.06,-0.034355275,-0.029733377,-0.057769164,-0.062478952,-0.055090155,-0.065,-0.06952841,-0.07214274,-0.058780406,-0.041192267,-0.053309087,-0.06,-0.06755761,-0.06904877,-0.044827487,-0.042810924,-0.051206365,-0.06,-0.05858101,-0.045268435,-0.062274057,-0.04754157,-0.032630447,-0.07,-0.06897114,-0.05859414,-0.058842663,-0.055691496,-0.05824993,-0.03,-0.03414202,-0.04914217,-0.022752924,-0.02672913,-0.040961795,-0.035,-0.025512885,-0.0330084,-0.04259372,-0.017921416,-0.005006723,-0.01,-0.010327782,-0.006507412,-0.007904276,-0.016024705,0.005817633,0.02,0.022996278,0.026254669,0.012262297,0.03115221,0.037725583,0.03,0.04860329,0.042962205,0.04514931,0.058581207,0.06089069,0.07,0.070547916,0.071597785,0.08205482,0.09473184,0.10044361,0.1,0.09523534,0.10500569,0.12454749,0.11427109,0.1252485,0.14,0.1258234,0.12771174,0.11340833,0.10490406,0.10324692,0.1,0.118279204,0.11885016,0.12390208,0.09964161,0.08253656,0.11,0.08543742,0.083251245,0.08384067,0.06018161,0.077781335,0.055,0.042153172,0.04760325,0.031175008,0.038062103,0.019133635,0.005,-0.001414033,-0.011084159,0.004671505,-0.00896114,-0.012601469,-0.005,-0.026060466,-0.038365804,-0.039873313,-0.031301606,-0.03849935,-0.05,-0.036996122,-0.036594413,-0.042123836,-0.037927493,-0.034411903,-0.03,-0.024962902,-0.030892624,-0.03628109,-0.025114093,-0.027014371,-0.035,-0.03441235,-0.039239123,-0.038083933,-0.033283856,-0.029287562,-0.03,-0.031165844,-0.024520777,-0.031630058,-0.042892754,-0.038190793,-0.03,-0.028896116,-0.039288383,-0.048514806,-0.0286114,-0.009157082,-0.025,-0.0312733,-0.028009221,-0.030873578,-0.01969153,-0.015051369,-0.015,-0.0186222,-0.021443399,-0.021463713,-0.035575047,-0.033222042,-0.035,-0.04528513,-0.040669303,-0.039130498,-0.033468075,-0.049841814,-0.055,-0.039207242,-0.050554797,-0.038372356,-0.032831978,-0.04583114,-0.04,-0.048392944,-0.047605786,-0.046310186,-0.049127586,-0.037979532,-0.035,-0.034217197,-0.042450204,-0.043116663,-0.04159609,-0.05093853,-0.045,-0.047994856,-0.054383997,-0.05866241,-0.067364454,-0.06415211,-0.065,-0.06113671,-0.063608706,-0.07721395,-0.07006484,-0.06577204,-0.075,-0.07987257,-0.07765967,-0.07102968,-0.07185545,-0.08217874,-0.085,-0.06887413,-0.057269976,-0.06907231,-0.07322702,-0.057284854,-0.065,-0.08451616,-0.077964075,-0.0752308,-0.07166256,-0.06551679,-0.08,-0.08175969,-0.07728388,-0.083791815,-0.072980694,-0.05925872,-0.075,-0.09056265,-0.08181137,-0.08283724,-0.08262694,-0.074470416,-0.08,-0.079764314,-0.0890286,-0.095726304,-0.07710894,-0.07734156,-0.09,-0.094569385,-0.091376446,-0.07387617,-0.07356086,-0.08634662,-0.08,-0.07458253,-0.07818968,-0.08314713,-0.084031865,-0.08007305,-0.09,-0.09141412,-0.088544786,-0.08669741,-0.0694301,-0.085315034,-0.09,-0.07755301,-0.09320974,-0.07431014,-0.0800166,-0.09873993,-0.065,-0.06533047,-0.081770666,-0.06884961,-0.037059348,-0.033476796,-0.05,-0.027729783,-0.03607716,-0.043990742,-0.023663007,-0.025480598,-0.02,-0.03547832,-0.044321377,-0.03806659,-0.049293164,-0.050351944,-0.065,-0.074849434,-0.07972968,-0.0914411,-0.09769967,-0.09806369,-0.08,-0.09455234,-0.10598848,-0.09547803,-0.11339278,-0.11237035,-0.1,-0.09127684,-0.09422004,-0.1016912,-0.08080727,-0.08359094,-0.1,-0.100037724,-0.102587156,-0.10880952,-0.10817911,-0.10615482,-0.12,-0.112808295,-0.112282746,-0.12512638,-0.10551389,-0.10136466,-0.105,-0.10421272,-0.10613844,-0.10581164,-0.10982374,-0.09046053,-0.09,-0.10866893,-0.11025618,-0.10559927,-0.07422582,-0.03134709,0.02,0.08205441,0.15291227,0.22904935,0.2733891,0.29245338,0.295,0.29243562,0.2556147,0.15023455,0.027813427,-0.06540906,-0.135,-0.22201243,-0.23222664,-0.14670947,-0.11594709,-0.099382706,-0.08,-0.07425219,-0.055627123,-0.077534884,-0.07859435,-0.066384114,-0.09,-0.08004726,-0.06422899,-0.066648744,-0.06372044,-0.06568947,-0.065,-0.06402265,-0.06789252,-0.055326093,-0.0545382,-0.078433335,-0.07,-0.06343667,-0.06328005,-0.044974387,-0.05802557,-0.056765117,-0.05,-0.07249808,-0.07093443,-0.057047337,-0.04602488,-0.046378687,-0.055,-0.06350681,-0.0603516,-0.03360779,-0.035261996,-0.045042526,-0.04,-0.040377263,-0.038809292,-0.039609667,-0.021291044,-0.02397872,-0.035,-0.004416789,-0.003128962,-0.012406291,0.000182012,0.005854996,0.01,-0.001280717,-0.013291607,0.003796961,0.025982304,0.01672491,0.02,0.048053943,0.043109223,0.04645298,0.066238314,0.07096243,0.08,0.07283166,0.07028578,0.09914988,0.10868565,0.09241106,0.1,0.11858171,0.12047759,0.11637132,0.09586385,0.10012915,0.13,0.11521323,0.10622839,0.128735,0.12310885,0.10213652,0.105,0.11479945,0.11398498,0.115249336,0.09221796,0.07587826,0.095,0.07331292,0.044832014,0.0487973,0.051558126,0.06107272,0.04,0.007190993,0.007412934,0.011687226,0.005556691,-0.01311946,-0.01,-0.021144077,-0.06324491,-0.04927177,-0.03454064,-0.03924911,-0.035,-0.06100359,-0.061657414,-0.052309338,-0.052779462,-0.038470943,-0.05,-0.048000365,-0.043306887,-0.05929631,-0.05825831,-0.061295655,-0.065,-0.07302877,-0.074716546,-0.064669706,-0.06528371,-0.058770455,-0.065,-0.06370233,-0.048456665,-0.057336792,-0.058458745,-0.062306814,-0.07,-0.06031882,-0.07175355,-0.082280055,-0.061013434,-0.0706352,-0.085,-0.04971078,-0.053808358,-0.06893129,-0.059090454,-0.08515211,-0.07,-0.04677031,-0.069683746,-0.056249153,-0.047663912,-0.07497498,-0.07,-0.041302975,-0.052917905,-0.056847937,-0.04388388,-0.070788935,-0.07,-0.059012327,-0.06202779,-0.061388817,-0.0720334,-0.049905792,-0.06,-0.08227116,-0.06555079,-0.06878949,-0.06052043,-0.07601621,-0.085,-0.06036403,-0.07401665,-0.08090191,-0.080383144,-0.07248371,-0.075,-0.08051291,-0.046636693,-0.06432364,-0.08773856,-0.08023172,-0.095,-0.08430036,-0.072630055,-0.08025065,-0.088470265,-0.09624064,-0.105,-0.11543634,-0.10483469,-0.098629855,-0.09897866,-0.095192514,-0.105,-0.10660494,-0.1014309,-0.115419604,-0.11349805,-0.07947378,-0.09,-0.10820395,-0.08600032,-0.09602144,-0.10426405,-0.10098699,-0.11,-0.10516848,-0.11183085,-0.11269715,-0.10093822,-0.10105801,-0.11,-0.108138435,-0.09198221,-0.09254285,-0.095910214,-0.10911254,-0.12,-0.102542095,-0.101325735,-0.10817225,-0.112144254,-0.11451878,-0.11,-0.11427478,-0.112758376,-0.10793283,-0.11234527,-0.10652251,-0.08,-0.08843169,-0.10818853,-0.08270831,-0.099332586,-0.11796663,-0.085,-0.093541056,-0.118269585,-0.118875384,-0.122498006,-0.12389398,-0.11,-0.11181426,-0.12241813,-0.1161392,-0.122919634,-0.10361687,-0.095,-0.120056435,-0.10573861,-0.12189279,-0.14025718,-0.11576553,-0.115,-0.10843485,-0.095567025,-0.09613904,-0.0910729,-0.07044478,-0.06,-0.061160784,-0.05885056,-0.07649235,-0.066302896,-0.06409961,-0.09,-0.08057986,-0.095539875,-0.107668184,-0.10937378,-0.13375117,-0.135,-0.14647965,-0.15360974,-0.14583758,-0.14370075,-0.1403603,-0.15,-0.14699225,-0.14073506,-0.1371871,-0.13646314,-0.1387845,-0.125,-0.14339867,-0.15935542,-0.13077556,-0.13222085,-0.1583556,-0.15,-0.13857093,-0.14941525,-0.14431174,-0.14133075,-0.14376006,-0.125,-0.11817573,-0.13107662,-0.13490905,-0.12835638,-0.137004,-0.125,-0.100193635,-0.10852165,-0.10837029,-0.12480103,-0.12510556,-0.09,-0.069197424,0.003832503,0.08300643,0.14872473,0.21458773,0.24,0.27496076,0.2777613,0.26012412,0.19513522,0.038147748,-0.08,-0.18785535,-0.2660207,-0.2615418,-0.23745959,-0.17606261,-0.13,-0.1130828,-0.10615232,-0.11404043,-0.10675907,-0.11147483,-0.105,-0.109370366,-0.13082585,-0.10294429,-0.082079634,-0.092292175,-0.095,-0.086200215,-0.08919068,-0.09965773,-0.09028433,-0.09171865,-0.095,-0.08993052,-0.09292454,-0.10001053,-0.10323119,-0.0724257,-0.06,-0.07945702,-0.06933636,-0.0689567,-0.085804,-0.09029968,-0.09,-0.08205666,-0.072880775,-0.066597424,-0.064441614,-0.057896502,-0.05,-0.058126442,-0.05961591,-0.047861278,-0.044785798,-0.03703536,-0.02,-0.026008356,-0.04133795,-0.031593304,-0.024413519,-0.023859968,-0.015,-0.026307488,-0.034890316,-0.02012458,-0.014580967,-0.014980376,-0.015,-0.004029619,0.012836297,0.01833399,0.040873274,0.047943547,0.035,0.05517765,0.06652037,0.067758895,0.08949617,0.10062509,0.1,0.09997969,0.099964835,0.10108749,0.109033965,0.11513389,0.11,0.1127002,0.12584335,0.13228291,0.12714198,0.11750764,0.1,0.10396496,0.13401619,0.11927382,0.09463248,0.101852514,0.105,0.110043555,0.10087106,0.09261947,0.09315415,0.069138125,0.05,0.049044333,0.052885033,0.037062865,0.011285644,-0.003200104,-0.02,-0.008759067,-0.005700486,-0.025971875,-0.023409832,-0.047964264,-0.075,-0.062691174,-0.057749886,-0.064563975,-0.07325688,-0.07468017,-0.08,-0.09446208,-0.08440577,-0.063555904,-0.06277937,-0.085996576,-0.11,-0.103424914,-0.09101726,-0.088406935,-0.08464271,-0.09861361,-0.1,-0.087995715,-0.109514624,-0.10683981,-0.08430705,-0.09159632,-0.08,-0.07197036,-0.09319615,-0.103531726,-0.09477143,-0.084508546,-0.095,-0.08952085,-0.07473315,-0.09434464,-0.09575232,-0.08489609,-0.095,-0.0846755,-0.067987435,-0.0805725,-0.0907648,-0.07685901,-0.075,-0.081079304,-0.07373094,-0.082719035,-0.07835413,-0.059207134,-0.09,-0.108751394,-0.083816364,-0.08487668,-0.08905754,-0.08546227,-0.09,-0.07371857,-0.068292156,-0.08585121,-0.08869816,-0.07676686,-0.06,-0.069350034,-0.09368304,-0.09013231,-0.09601465,-0.11099027,-0.1,-0.0977992,-0.108685926,-0.10809911,-0.10439433,-0.11251288,-0.12,-0.111416355,-0.10980466,-0.106842734,-0.10860991,-0.120420754,-0.105,-0.11481398,-0.12202158,-0.097036056,-0.12631957,-0.122417256,-0.09,-0.12017962,-0.11709681,-0.094569154,-0.09647502,-0.1023408,-0.12,-0.12109697,-0.11971813,-0.11484138,-0.10080767,-0.10778823,-0.12,-0.121520884,-0.109563544,-0.10306625,-0.10618509,-0.11234002,-0.13,-0.13193835,-0.12449356,-0.12682895,-0.12133811,-0.114958726,-0.125,-0.12726058,-0.11775648,-0.1278908,-0.12660651,-0.12776205,-0.14,-0.118241414,-0.121897005,-0.13203248,-0.12461221,-0.14367759,-0.14,-0.14143327,-0.1526706,-0.14684281,-0.1498127,-0.12354482,-0.125,-0.15523821,-0.13842727,-0.14702253,-0.16913268,-0.14995375,-0.14,-0.14868337,-0.15117276,-0.14747758,-0.14384793,-0.14631593,-0.155,-0.15188219,-0.14709699,-0.15636967,-0.16049114,-0.15949953,-0.15,-0.13649744,-0.13340877,-0.14040083,-0.14258204,-0.1130655,-0.1,-0.10660897,-0.095139526,-0.10005209,-0.096352406,-0.10459962,-0.115,-0.08235884,-0.098683245,-0.10639633,-0.08911833,-0.12834142,-0.135,-0.14707437,-0.17495218,-0.15616316,-0.16154166,-0.16982786,-0.175,-0.19007489,-0.1802496,-0.17080837,-0.17164704,-0.18154791,-0.17,-0.15064691,-0.14937374,-0.13721941,-0.14827025,-0.15951543,-0.15,-0.15741347,-0.16986793,-0.18077752,-0.17719103,-0.18344721,-0.2,-0.19305792,-0.17444383,-0.15637356,-0.17862181,-0.19322515,-0.17,-0.18032831,-0.19528244,-0.19160299,-0.17877601,-0.16976295,-0.17,-0.1565076,-0.15688813,-0.13606752,-0.07294625,-0.006329166,0.065,0.12411455,0.17849794,0.20392749,0.20041741,0.22529323,0.205,0.10672175,-0.001372926,-0.13388674,-0.25364193,-0.2794749,-0.28,-0.2738083,-0.2147754,-0.18232913,-0.16327876,-0.12413513,-0.125,-0.13820766,-0.1499073,-0.15638703,-0.14517125,-0.1390736,-0.135,-0.14657801,-0.15636374,-0.15329272,-0.1556355,-0.14790858,-0.145,-0.14963861,-0.15029669,-0.1479932,-0.14416714,-0.14457129,-0.135,-0.14043091,-0.1603309,-0.1502448,-0.13687271,-0.13395576,-0.125,-0.12761547,-0.13878632,-0.1367368,-0.12557933,-0.11933082,-0.12,-0.12839915,-0.12761185,-0.107290916,-0.1112155,-0.12545808,-0.115,-0.123160236,-0.11322613,-0.092668,-0.12456203,-0.11131214,-0.08,-0.10610725,-0.10393797,-0.08717516,-0.08210452,-0.06670725,-0.055,-0.057201773,-0.070691995,-0.060186915,-0.047326237,-0.043123662,-0.03,-0.0299687,-0.023934228,-0.018418476,-0.019306147,-0.006546214,0.01,0.0115155,0.011169498,0.036127776,0.035128344,0.03988622,0.06,0.028865237,0.042589925,0.07024785,0.053232502,0.055964224,0.045,0.049654767,0.07274715,0.07361726,0.064836696,0.04758588,0.05,0.039484043,0.026931008,0.03258312,0.018228365,0.015730005,0.01,0.000409512,-0.008519629,-0.03738462,-0.03235841,-0.013593409,-0.03,-0.06454071,-0.077685155,-0.07410762,-0.09552182,-0.10408556,-0.1,-0.10932652,-0.10850266,-0.1178032,-0.12591033,-0.12637296,-0.145,-0.15898164,-0.15931524,-0.14374287,-0.13588174,-0.15292856,-0.15,-0.1556605,-0.16757086,-0.143867,-0.1457055,-0.15445703,-0.15,-0.15625724,-0.14238325,-0.14805989,-0.16425742,-0.17287165,-0.185,-0.16799942,-0.16663861,-0.16751055,-0.15809765,-0.1593346,-0.15,-0.1548302,-0.146489,-0.15671681,-0.16670649,-0.13672878,-0.165,-0.17055376,-0.15743758,-0.16704622,-0.13096718,-0.16236,-0.185,-0.14541933,-0.1704188,-0.17247516,-0.15110596,-0.16939466,-0.175,-0.16941345,-0.17758386,-0.1742755,-0.15364714,-0.17132333,-0.185,-0.16625074,-0.17172085,-0.17329918,-0.17091236,-0.17443036,-0.16,-0.15683047,-0.17855068,-0.18307477,-0.16217868,-0.16914812,-0.185,-0.17715037,-0.16979082,-0.17652097,-0.19787878,-0.19053833,-0.175,-0.19136602,-0.20305675,-0.20694642,-0.20120943,-0.19479439,-0.2,-0.20888603,-0.2038576,-0.1865163,-0.20546484,-0.19881159,-0.18,-0.22344504,-0.22351165,-0.198642,-0.20116341,-0.20109805,-0.215,-0.20395064,-0.1965886,-0.19891992,-0.18756624,-0.20366167,-0.2,-0.20030199,-0.22051524,-0.21565093,-0.22683111,-0.22742163,-0.215,-0.2158881,-0.21133035,-0.22743665,-0.23175174,-0.21209146,-0.215,-0.22012646,-0.22390896,-0.23917356,-0.23510824,-0.22453417,-0.23,-0.22208026,-0.22106515,-0.22567268,-0.21944466,-0.23938157,-0.23,-0.21073383,-0.24868943,-0.25682473,-0.23053743,-0.22574686,-0.235,-0.24405426,-0.24833177,-0.24846186,-0.23513754,-0.25118232,-0.265,-0.23353225,-0.24188668,-0.2640496,-0.24487509,-0.23581305,-0.245,-0.23015273,-0.2154072,-0.22859624,-0.21628158,-0.20500033,-0.2,-0.18365236,-0.20383686,-0.2064514,-0.20084351,-0.20377773,-0.195,-0.20546801,-0.18725836,-0.18679062,-0.21198672,-0.20961466,-0.22,-0.22705203,-0.256307,-0.2738485,-0.25123602,-0.25185618,-0.265,-0.28803647,-0.27894726,-0.26619846,-0.25479227,-0.2154104,-0.24,-0.24583831,-0.22871178,-0.24108088,-0.22239266,-0.24997629,-0.28,-0.27430356,-0.27850187,-0.26666546,-0.26749733,-0.27015758,-0.28,-0.27949852,-0.25750774,-0.25477645,-0.24617201,-0.252562,-0.25,-0.24207151,-0.2594713,-0.25438187,-0.26044232,-0.26293504,-0.25,-0.25068337,-0.24136746,-0.22070335,-0.17141281,-0.09895619,-0.005,0.06435901,0.08316672,0.119332515,0.13618459,0.12856579,0.105,0.025566576,-0.08370278,-0.19562334,-0.28112793,-0.3528561,-0.375,-0.34431693,-0.3256572,-0.27523416,-0.2472763,-0.25423297,-0.235,-0.23810028,-0.2398838,-0.24986139,-0.26994082,-0.26346844,-0.265,-0.2503649,-0.23273338,-0.24226451,-0.24399795,-0.24679126,-0.255,-0.24295181,-0.23956974,-0.24858026,-0.2332622,-0.24529746,-0.25,-0.22367582,-0.25174344,-0.24810988,-0.21873793,-0.23310572,-0.235,-0.24791877,-0.2399737,-0.22747649,-0.24528413,-0.22364043,-0.215,-0.22576243,-0.21742535,-0.21182866,-0.19962794,-0.19517617,-0.195,-0.194109,-0.20123067,-0.20990862,-0.20533885,-0.1870924,-0.185,-0.1814254,-0.17939569,-0.17266922,-0.14483498,-0.14816861,-0.155,-0.14964713,-0.1496456,-0.13659585,-0.13711491,-0.13242418,-0.125,-0.13457647,-0.12695892,-0.10958972,-0.09544055,-0.09581391,-0.085,-0.057104867,-0.06068803,-0.06501256,-0.05672383,-0.048191223,-0.05,-0.06228033,-0.03265393,-0.019613588,-0.04214561,-0.031171754,-0.025,-0.029294977,-0.03854779,-0.049223542,-0.042266812,-0.045850117,-0.04,-0.053903017,-0.06676543,-0.038375005,-0.071162574,-0.09209864,-0.065,-0.085155345,-0.09869847,-0.12499215,-0.13632414,-0.11455845,-0.155,-0.15826869,-0.12836732,-0.15626375,-0.1729086,-0.18290147,-0.185,-0.17286028,-0.20137891,-0.2203047,-0.20380902,-0.21390124,-0.215,-0.19825298,-0.22205862,-0.22540827,-0.20219931,-0.19324051,-0.19,-0.21624272,-0.21125849,-0.19576012,-0.22022963,-0.2245946,-0.23,-0.21933073,-0.21205758,-0.22885168,-0.22156799,-0.23327781,-0.225,-0.21568625,-0.23714197,-0.22211023,-0.21573521,-0.21352574,-0.215,-0.21782246,-0.2082274,-0.22994192,-0.22015779,-0.20503142,-0.205,-0.19284332,-0.21728969,-0.2237767,-0.22258377,-0.22960562,-0.22,-0.2134007,-0.19456388,-0.20902726,-0.21659403,-0.19921125,-0.22,-0.22269145,-0.21612462,-0.2272065,-0.22801283,-0.21110085,-0.21,-0.23051067,-0.20956607,-0.20045088,-0.21305831,-0.21779394,-0.24,-0.22459766,-0.22550972,-0.25410834,-0.23146959,-0.21488215,-0.225,-0.23054305,-0.22326277,-0.21907687,-0.21870369,-0.21575043,-0.23,-0.23111628,-0.23398304,-0.2444284,-0.23673524,-0.24182609,-0.24,-0.23379175,-0.24320239,-0.24118905,-0.2204416,-0.21175839,-0.245,-0.26232964,-0.24489394,-0.23792358,-0.24378452,-0.2569184,-0.25,-0.23943983,-0.24463493,-0.24503098,-0.2554715,-0.25865218,-0.245,-0.23935248,-0.24846606,-0.26309067,-0.2629799,-0.25231317,-0.235,-0.23198216,-0.25022128,-0.25800678,-0.26014373,-0.24578166,-0.24,-0.25972566,-0.24506146,-0.25148907,-0.28270388,-0.25782612,-0.25,-0.26567167,-0.25411823,-0.24741228,-0.24445333,-0.2595425,-0.265,-0.23067246,-0.22191882,-0.24589378,-0.2660702,-0.26200244,-0.245,-0.24739118,-0.2613803,-0.2637318,-0.24979748,-0.25904772,-0.265,-0.24151741,-0.25194055,-0.26186407,-0.25198025,-0.2564689,-0.26,-0.24986243,-0.22588742,-0.23751374,-0.24967591,-0.24038593,-0.26,-0.24621391,-0.23055537,-0.2378657,-0.22595735,-0.23801945,-0.22,-0.18492492,-0.20274968,-0.20775644,-0.18647404,-0.18134594,-0.2,-0.2000463,-0.17123967,-0.16653894,-0.18132354,-0.19861913,-0.21,-0.20586248,-0.20473652,-0.205077,-0.21899368,-0.2504951,-0.26,-0.26707354,-0.27076748,-0.23954506,-0.24447173,-0.2650824,-0.24,-0.23724645,-0.24338087,-0.23711085,-0.24120937,-0.23303105,-0.235,-0.23700903,-0.2282715,-0.23787984,-0.24696119,-0.24361888,-0.235,-0.237539,-0.24900083,-0.24742834,-0.2455249,-0.2509209,-0.25,-0.24905849,-0.25272882,-0.24001414,-0.22728264,-0.23086365,-0.23,-0.22976345,-0.22794817,-0.22072433,-0.22246648,-0.23025276,-0.2,-0.13207145,-0.07701631,0.004025678,0.088347204,0.13348137,0.18,0.19888987,0.20684443,0.17569825,0.05532088,-0.08251222,-0.225,-0.32509017,-0.3533739,-0.3458754,-0.2983527,-0.2596238,-0.235,-0.20849851,-0.19722971,-0.19121435,-0.17947264,-0.17748809,-0.205,-0.20029882,-0.18712673,-0.20751633,-0.19761266,-0.1981224,-0.21,-0.19755584,-0.18752976,-0.18724069,-0.20907481,-0.19883978,-0.175,-0.19233191,-0.18849662,-0.17273287,-0.17886028,-0.18606856,-0.19,-0.18356763,-0.16362669,-0.16648085,-0.18402891,-0.16454789,-0.16,-0.17575279,-0.16290903,-0.16558208,-0.17767607,-0.1659941,-0.145,-0.1470001,-0.15303555,-0.12924765,-0.13024195,-0.13961081,-0.13,-0.12323512,-0.103392914,-0.10494465,-0.10754978,-0.100989036,-0.115,-0.08787939,-0.07316519,-0.099725395,-0.07303426,-0.049744904,-0.06,-0.055530142,-0.05689946,-0.044635095,-0.034694243,-0.03892575,-0.015,-0.011790991,-0.020200303,-0.006026117,-0.006611232,0.003942629,0.015,0.001462526,0.0089759,0.03521326,0.036465574,0.023825629,0.035,0.045998394,0.032499224,0.020161338,0.043784827,0.06470876,0.035,0.030862082,0.043670908,0.03522602,0.04344077,0.02285115,-9.47E-17,0.012882146,0.012046659,-0.007448091,-0.014588182,-0.011461013,-0.04,-0.044110954,-0.03545394,-0.059722144,-0.057055555,-0.07639963,-0.085,-0.07893952,-0.11832987,-0.119059674,-0.119669266,-0.13055933,-0.14,-0.15713912,-0.13846454,-0.15825373,-0.16487582,-0.151123,-0.17,-0.15247087,-0.16398017,-0.1752633,-0.1527016,-0.15639865,-0.155,-0.15947844,-0.15494293,-0.16926956,-0.19475627,-0.16832091,-0.16,-0.17325984,-0.18015566,-0.17195313,-0.15684445,-0.16709204,-0.16,-0.15757693,-0.16414355,-0.1544383,-0.16847329,-0.1805318,-0.18,-0.18112795,-0.17400806,-0.18469062,-0.19432929,-0.16225392,-0.15,-0.16572072,-0.15207599,-0.15834533,-0.16067123,-0.14427471,-0.16,-0.16003048,-0.17524624,-0.18462895,-0.16409953,-0.17081513,-0.15,-0.16116156,-0.18609005,-0.15552044,-0.17311491,-0.17521901,-0.16,-0.19151804,-0.18518707,-0.16882208,-0.18161857,-0.19012043,-0.18,-0.17784621,-0.1860807,-0.1852273,-0.20180213,-0.18168798,-0.16,-0.20308472,-0.2095288,-0.19178282,-0.19999078,-0.2120408,-0.21,-0.19490665,-0.2061231,-0.20714612,-0.20992655,-0.21812122,-0.19,-0.20679457,-0.23061085,-0.21347193,-0.20992139,-0.20375171,-0.21,-0.20854612,-0.19622496,-0.2101729,-0.21519387,-0.22254147,-0.23,-0.22933723,-0.22955221,-0.21799111,-0.22527003,-0.22090124,-0.2,-0.21925552,-0.2344274,-0.21971138,-0.2174405,-0.23262577,-0.23,-0.22316657,-0.23534626,-0.22494513,-0.21413343,-0.22061196,-0.22,-0.23718819,-0.23215103,-0.20749258,-0.21545051,-0.22025162,-0.23,-0.22556224,-0.20434953,-0.22871771,-0.2267976,-0.21124245,-0.24,-0.2387029,-0.22445565,-0.20872901,-0.20323509,-0.22853535,-0.215,-0.21104796,-0.22213072,-0.20147114,-0.20547722,-0.21613434,-0.225,-0.22779852,-0.2119444,-0.2136515,-0.22480176,-0.23627234,-0.225,-0.21786995,-0.22283535,-0.20041795,-0.20816262,-0.21963482,-0.215,-0.21336205,-0.1967828,-0.21630476,-0.21945989,-0.19737048,-0.19,-0.17438681,-0.18746169,-0.15864773,-0.12750864,-0.1603578,-0.145,-0.14035116,-0.15254615,-0.13338824,-0.13982897,-0.13873297,-0.15,-0.17006454,-0.16617173,-0.18350199,-0.19805276,-0.20088026,-0.205,-0.20816849,-0.2183118,-0.2193119,-0.22242185,-0.22406715,-0.215,-0.21115108,-0.20048702,-0.19131845,-0.20007685,-0.21158572,-0.21,-0.19699651,-0.19510008,-0.21024846,-0.22496977,-0.22999938,-0.22,-0.19855599,-0.19074164,-0.20460248,-0.20882843,-0.19802344,-0.195,-0.19491145,-0.1980547,-0.19945328,-0.19331938,-0.20284195,-0.205,-0.18750273,-0.18276508,-0.19134049,-0.20347577,-0.18150713,-0.125,-0.06103471,0.027591817,0.09322331,0.13108252,0.17863697,0.205,0.22773406,0.20162041,0.07735201,-0.05448291,-0.18234289,-0.305,-0.3279303,-0.27744344,-0.24043758,-0.20379537,-0.17020899,-0.155,-0.14080094,-0.14475673,-0.13412668,-0.119724095,-0.15184134,-0.15,-0.13264312,-0.15183109,-0.15171222,-0.1518209,-0.14731182,-0.14,-0.15451945,-0.14230157,-0.13504915,-0.15027636,-0.14886758,-0.145,-0.13285702,-0.12885651,-0.1434746,-0.13098489,-0.11417185,-0.125,-0.12306116,-0.11029162,-0.11314954,-0.114256695,-0.10857627,-0.1,-0.09886694,-0.10222471,-0.09548806,-0.09655485,-0.09304889,-0.085,-0.08909731,-0.09306662,-0.09479657,-0.07479475,-0.06664613,-0.08,-0.07129694,-0.0755822,-0.08010619,-0.07235497,-0.061061833,-0.04,-0.05875449,-0.07483681,-0.060711272,-0.051030923,-0.038102742,-0.04,-0.029685985,-0.013334365,-0.020607548,-0.014845736,0.003441737,0.01,4.12E-05,0.015036694,0.027310144,0.008885562,0.02531914,0.03,0.01809721,0.03547215,0.038980484,0.03351241,0.03679816,0.055,0.05811143,0.046435047,0.059474863,0.054046255,0.045481488,0.05,0.029648915,0.019520182,0.03500472,0.026785025,0.002150773,0.01,0.004999159,-0.014854576,-0.013508153,-0.027251186,-0.03548115,-0.045,-0.055308416,-0.05731566,-0.07888493,-0.085898176,-0.09859584,-0.1,-0.09522139,-0.12544101,-0.12522598,-0.1319091,-0.13746944,-0.12,-0.13665336,-0.14298546,-0.1569937,-0.17149194,-0.15702902,-0.15,-0.14452101,-0.15489072,-0.16185123,-0.15920039,-0.1529767,-0.155,-0.18306722,-0.17032331,-0.15849324,-0.17564341,-0.17482021,-0.185,-0.17959219,-0.15655707,-0.14391834,-0.15102567,-0.16596793,-0.155,-0.15766579,-0.1620029,-0.16222303,-0.17155772,-0.15719289,-0.17,-0.18343739,-0.16169153,-0.16711822,-0.1645112,-0.14904216,-0.16,-0.15779033,-0.1501163,-0.16939826,-0.1924701,-0.19303039,-0.18,-0.18383947,-0.17818865,-0.16486971,-0.18413483,-0.1817982,-0.18,-0.20007437,-0.18999414,-0.20039587,-0.19761641,-0.18070486,-0.21,-0.20517941,-0.19140796,-0.19740625,-0.18498595,-0.19351122,-0.2,-0.19003269,-0.19907328,-0.20864263,-0.20144354,-0.20071962,-0.2,-0.2015355,-0.22007881,-0.20867328,-0.20262344,-0.21577346,-0.21,-0.22381927,-0.20768096,-0.19418432,-0.22681758,-0.21466649,-0.21,-0.21818379,-0.19950707,-0.21133925,-0.21942061,-0.21577491,-0.225,-0.21328798,-0.20885524,-0.2223175,-0.21625814,-0.22342801,-0.23,-0.21503672,-0.22631355,-0.2254557,-0.2225149,-0.22812599,-0.2,-0.20876595,-0.22782393,-0.22083169,-0.22973053,-0.23579524,-0.235,-0.20563908,-0.20439616,-0.23574442,-0.20944057,-0.19681393,-0.21,-0.20571561,-0.20464455,-0.20822719,-0.21711938,-0.2000554,-0.195,-0.21401094,-0.21278536,-0.22324605,-0.21941198,-0.21134022,-0.23,-0.2197314,-0.20623566,-0.21947663,-0.22439559,-0.21210955,-0.21,-0.23196422,-0.22990856,-0.20766547,-0.20667563,-0.21085273,-0.22,-0.22523168,-0.22692844,-0.23027682,-0.21091762,-0.20645946,-0.21,-0.20725323,-0.2265082,-0.22657661,-0.22911362,-0.23308533,-0.215,-0.22226521,-0.22939812,-0.23226975,-0.2231792,-0.20963565,-0.215,-0.20113632,-0.2089976,-0.1901394,-0.15233873,-0.18156183,-0.17,-0.15143655,-0.17108317,-0.16014925,-0.1571667,-0.17466383,-0.2,-0.18731068,-0.16371138,-0.18712941,-0.19410467,-0.20547944,-0.24,-0.24333367,-0.22833654,-0.2441459,-0.26284745,-0.2466806,-0.25,-0.24491581,-0.22731115,-0.2367892,-0.2305995,-0.23175274,-0.235,-0.23765363,-0.24198782,-0.2247543,-0.24050115,-0.24771972,-0.235,-0.24836859,-0.24474679,-0.23783238,-0.24095973,-0.23964572,-0.24,-0.24111217,-0.22746174,-0.21820678,-0.23822471,-0.23088299,-0.225,-0.24026324,-0.23134744,-0.23276915,-0.22364569,-0.2231106,-0.235,-0.19873638,-0.162187,-0.10204368,-0.009416209,0.05707725,0.12,0.14706619,0.13066565,0.14138855,0.15547632,0.10358406,-0.005,-0.1227149,-0.22785623,-0.3130749,-0.3518439,-0.31195644,-0.25,-0.23145325,-0.21617039,-0.191623,-0.19483635,-0.20564348,-0.2,-0.20360123,-0.20147987,-0.19037855,-0.21010867,-0.21188216,-0.2,-0.22154143,-0.22232635,-0.20584247,-0.19595347,-0.1902835,-0.2,-0.20043011,-0.20525,-0.21143082,-0.20141093,-0.20652923,-0.195,-0.1776061,-0.2043211,-0.22012733,-0.22269343,-0.22952431,-0.21,-0.19949326,-0.20282419,-0.21259186,-0.21793209,-0.1891587,-0.19,-0.20211396,-0.19122902,-0.20709464,-0.20412621,-0.19630402,-0.21,-0.1986117,-0.18648577,-0.1838726,-0.18663305,-0.18336898,-0.185,-0.20106588,-0.1790242,-0.17276718,-0.18671209,-0.16564742,-0.165,-0.15568839,-0.13433415,-0.137508,-0.12137533,-0.11650408,-0.12,-0.10286209,-0.09326535,-0.08491871,-0.08871951,-0.0949048,-0.09,-0.086823806,-0.07582875,-0.08082584,-0.08080043,-0.055298235,-0.05,-0.05854548,-0.06276536,-0.049524214,-0.04034753,-0.05828724,-0.055,-0.055911284,-0.073018104,-0.05475099,-0.035902232,-0.042320143,-0.055,-0.06379426,-0.07288845,-0.091039814,-0.09272989,-0.092357166,-0.12,-0.12763959,-0.11922323,-0.13913664,-0.14206871,-0.14342478,-0.17,-0.16687097,-0.1695011,-0.17540252,-0.17268388,-0.20720237,-0.21,-0.20157872,-0.21998255,-0.21416248,-0.22023241,-0.22370444,-0.22,-0.22961302,-0.22809155,-0.23693997,-0.23786508,-0.23623037,-0.245,-0.24441071,-0.24988738,-0.24620083,-0.24761128,-0.2483444,-0.24,-0.25650087,-0.26500142,-0.26640555,-0.25987282,-0.25020024,-0.26,-0.24767858,-0.25080204,-0.2676186,-0.26316586,-0.26434892,-0.245,-0.2491332,-0.26938164,-0.2541667,-0.26238787,-0.27638888,-0.285,-0.28812805,-0.27065048,-0.27701724,-0.27526852,-0.2574056,-0.255,-0.26273412,-0.26859415,-0.25947598,-0.27391994,-0.27663496,-0.255,-0.26672938,-0.27453688,-0.2784198,-0.2770405,-0.2699285,-0.27,-0.25495,-0.27427286,-0.28366923,-0.25436744,-0.2582888,-0.275,-0.29281712,-0.2890701,-0.2693004,-0.26218563,-0.2550141,-0.275,-0.28679302,-0.2762659,-0.2745451,-0.264086,-0.24709672,-0.25,-0.28106803,-0.27942142,-0.26282865,-0.26532793,-0.26026878,-0.28,-0.27534837,-0.2617569,-0.28538197,-0.2881844,-0.28396118,-0.27,-0.27540112,-0.288628,-0.28350663,-0.30121684,-0.2775761,-0.275,-0.29070127,-0.25689727,-0.28618723,-0.28968257,-0.25965372,-0.295,-0.28729075,-0.26540655,-0.27945065,-0.27600724,-0.27020952,-0.28,-0.28274176,-0.26416644,-0.26348323,-0.26920232,-0.25178674,-0.26,-0.2840305,-0.27372238,-0.2589046,-0.273112,-0.28543925,-0.275,-0.27235186,-0.28795236,-0.28511983,-0.2815749,-0.29013795,-0.275,-0.27700794,-0.2813446,-0.26925048,-0.27866888,-0.2586006,-0.25,-0.27369094,-0.2682708,-0.26471317,-0.2647584,-0.27253202,-0.28,-0.2838304,-0.27562037,-0.23938444,-0.26139063,-0.27747712,-0.26,-0.27581224,-0.25005063,-0.24576257,-0.2601132,-0.24431415,-0.27,-0.26180485,-0.24558318,-0.26998293,-0.26429316,-0.2611958,-0.265,-0.2605446,-0.25721943,-0.2532769,-0.25632992,-0.25427935,-0.255,-0.25573835,-0.25179926,-0.24427617,-0.22998282,-0.23145801,-0.23,-0.20868112,-0.20110883,-0.21139483,-0.20356186,-0.18908745,-0.2,-0.20174421,-0.1974882,-0.20259164,-0.19837774,-0.20807886,-0.215,-0.21691582,-0.23765126,-0.25163433,-0.25485918,-0.24153085,-0.24,-0.25575554,-0.23779786,-0.230569,-0.24381225,-0.23844017,-0.24,-0.2417595,-0.22939643,-0.22260454,-0.22802688,-0.23704338,-0.25,-0.25237295,-0.23810643,-0.23477212,-0.23431079,-0.23572251,-0.235,-0.23716801,-0.24646533,-0.22367144,-0.22834598,-0.23678353,-0.205,-0.21274172,-0.20644887,-0.20506649,-0.22300257,-0.2077807,-0.22,-0.21341789,-0.21381652,-0.20669867,-0.12589417,-0.077307135,-9.66E-17,0.08703301,0.118504785,0.18049064,0.20749664,0.2061323,0.2,0.12689881,0.000353362,-0.15022452,-0.26310092,-0.33105767,-0.355,-0.32754838,-0.28664646,-0.22711879,-0.18356425,-0.18820104,-0.2,-0.19262724,-0.18183057,-0.18013868,-0.19095628,-0.19957854,-0.185,-0.18773021,-0.18941197,-0.18519239,-0.19900315,-0.18735947,-0.2,-0.20144373,-0.17570715,-0.19279657,-0.17957705,-0.17185727,-0.17,-0.14099832,-0.15190122,-0.14744778,-0.1431165,-0.16289091,-0.16,-0.14345813,-0.13485028,-0.15022795,-0.14379641,-0.1431989,-0.16,-0.14351982,-0.13554522,-0.13123488,-0.13409328,-0.14560774,-0.135,-0.13323869,-0.14095032,-0.1307272,-0.10660098,-0.11469211,-0.13,-0.11280237,-0.109111995,-0.105183885,-0.08919229,-0.085126966,-0.085,-0.07291684,-0.06840473,-0.085578606,-0.07805044,-0.06389671,-0.065,-0.061542336,-0.04834943,-0.03193508,-0.039482996,-0.030476015,-0.01,-0.005810603,-0.003908224,-0.000896648,0.025295647,0.014297354,0.01,0.039811105,0.026373819,0.034897584,0.035754703,0.039867785,0.06,0.029439496,0.027252836,0.026384,0.044015095,0.06882419,0.03,0.035630535,0.035692114,0.018798435,0.025514854,0.006879972,0.02,0.024469472,0.002806129,1.91E-05,-0.000136288,-0.008875275,-0.04,-0.046404775,-0.052319963,-0.08220873,-0.08100501,-0.083150245,-0.11,-0.12486828,-0.123251304,-0.13139237,-0.13333572,-0.13133301,-0.145,-0.14448896,-0.15980114,-0.1769628,-0.17519782,-0.18744472,-0.19,-0.1987254,-0.18593703,-0.15401676,-0.17058492,-0.17921911,-0.185,-0.2022212,-0.17238246,-0.15966336,-0.18303353,-0.17757328,-0.185,-0.20165673,-0.18401696,-0.18328555,-0.17996292,-0.1714297,-0.195,-0.18166907,-0.16361375,-0.18204738,-0.18456198,-0.19966295,-0.205,-0.1812629,-0.19238502,-0.20009235,-0.18427108,-0.1788363,-0.17,-0.18548682,-0.19013248,-0.17036176,-0.18988718,-0.1786295,-0.165,-0.18591398,-0.16538982,-0.1669195,-0.17272642,-0.16657312,-0.185,-0.17288055,-0.1722578,-0.16801947,-0.15331225,-0.17437524,-0.175,-0.17328866,-0.17942311,-0.18392229,-0.1899536,-0.17036562,-0.165,-0.18209851,-0.1889505,-0.17260323,-0.15620509,-0.16179286,-0.17,-0.18660781,-0.19586116,-0.19408926,-0.19476467,-0.18853757,-0.185,-0.18869483,-0.19045152,-0.1743241,-0.18468371,-0.19767344,-0.16,-0.16792123,-0.18485141,-0.15908901,-0.16817765,-0.18084954,-0.19,-0.20535465,-0.19217578,-0.18016809,-0.17924657,-0.17442942,-0.18,-0.1817675,-0.17390259,-0.1795443,-0.17783482,-0.18260849,-0.185,-0.161059,-0.17618571,-0.18235935,-0.16897227,-0.19551119,-0.195,-0.18831839,-0.19300883,-0.18894458,-0.20963196,-0.2048937,-0.175,-0.18076815,-0.19600967,-0.18897161,-0.18441534,-0.17750286,-0.17,-0.17958382,-0.17466557,-0.18541071,-0.19242498,-0.17308357,-0.19,-0.19312502,-0.18154323,-0.17346813,-0.16646431,-0.1957282,-0.19,-0.17352338,-0.18383384,-0.18817775,-0.20794982,-0.19239709,-0.155,-0.16070421,-0.1763389,-0.1664087,-0.16129765,-0.17071429,-0.165,-0.1774721,-0.17090042,-0.15724304,-0.18505053,-0.16152258,-0.15,-0.17492902,-0.16540919,-0.16990645,-0.15351838,-0.13488767,-0.15,-0.158045,-0.17144829,-0.17278223,-0.15961787,-0.14776601,-0.14,-0.13555028,-0.14099833,-0.16429847,-0.16872291,-0.16465785,-0.16,-0.1586084,-0.15861948,-0.13672355,-0.15079069,-0.15619294,-0.13,-0.13926542,-0.12276143,-0.10190724,-0.10538354,-0.09196992,-0.085,-0.08001927,-0.087205514,-0.08360766,-0.066171765,-0.08495269,-0.09,-0.08735705,-0.09855837,-0.08311325,-0.08902508,-0.1341676,-0.16,-0.16344929,-0.17615643,-0.17537789,-0.15051027,-0.1535948,-0.17,-0.16245796,-0.15656051,-0.16925767,-0.17132373,-0.13758321,-0.13,-0.15736327,-0.15931576,-0.16822271,-0.17270957,-0.15867466,-0.17,-0.17181928,-0.1697396,-0.18161358,-0.17690635,-0.18299408,-0.19,-0.16527183,-0.15374699,-0.17302182,-0.17953683,-0.17463665,-0.175,-0.16632257,-0.16917154,-0.17981099,-0.16873014,-0.15904473,-0.15,-0.12504174,-0.102198415,-0.05716647,0.03427716,0.11227141,0.165,0.21743234,0.24317816,0.26055163,0.24583355,0.16535783,0.045,-0.115175076,-0.2259678,-0.2652659,-0.2910352,-0.25207144,-0.195,-0.17359757,-0.15333389,-0.13230622,-0.11571031,-0.1297197,-0.14,-0.12994713,-0.13709058,-0.14159381,-0.1487874,-0.14810546,-0.14,-0.14556052,-0.13403222,-0.13541068,-0.1572611,-0.15212569,-0.145,-0.15399544,-0.15071721,-0.13635592,-0.1265597,-0.11875294,-0.12,-0.13229685,-0.14164242,-0.13046564,-0.118529566,-0.13293624,-0.125,-0.11271947,-0.12859792,-0.12455783,-0.11897425,-0.105665915,-0.095,-0.113282956,-0.110899195,-0.11646556,-0.11334665,-0.086918265,-0.1,-0.110905394,-0.10416146,-0.08963902,-0.07997594,-0.09866087,-0.095,-0.0806743,-0.08025527,-0.07873136,-0.07027665,-0.06723013,-0.095,-0.08342821,-0.052838672,-0.06177532,-0.045574054,-0.049805142,-0.06,-0.024033897,-0.02762574,-0.03412385,-0.023675835,-0.037179895,-0.025,-0.010390444,-0.005552645,0.00488724,-0.004093614,0.010689402,0.025,0.002702378,0.002643988,0.002017281,0.005658547,0.027288713,0.015,0.016502878,0.024727708,0.015157385,0.023438424,0.011068934,0.01,0.017945813,0.000328028,0.005427638,-0.012846246,-0.03556514,-0.02,-0.02620412,-0.043572765,-0.061028853,-0.073111266,-0.08346686,-0.105,-0.11334757,-0.12610006,-0.12820108,-0.12908635,-0.1541894,-0.15,-0.14639674,-0.16463518,-0.15800427,-0.1601315,-0.1842061,-0.19,-0.1860452,-0.17574944,-0.1698119,-0.19802761,-0.20178565,-0.19,-0.20546296,-0.18423407,-0.18044169,-0.20782211,-0.19636415,-0.19,-0.17816344,-0.17843005,-0.20509052,-0.19893417,-0.18918353,-0.185,-0.18811591,-0.19022253,-0.18060541,-0.20064434,-0.20866117,-0.2,-0.19750561,-0.18388839,-0.19768175,-0.20982523,-0.18423295,-0.18,-0.21444759,-0.21859777,-0.1832456,-0.17746265,-0.18572424,-0.19,-0.19950725,-0.1989637,-0.20290266,-0.1937283,-0.18601468,-0.205,-0.21510309,-0.20991364,-0.1984456,-0.20614728,-0.21380965,-0.195,-0.20041566,-0.21918488,-0.21531513,-0.208556,-0.2103197,-0.205,-0.19948474,-0.20187292,-0.19673604,-0.20487317,-0.20208265,-0.195,-0.21417564,-0.20177366,-0.1959059,-0.19704448,-0.1926475,-0.225,-0.21131551,-0.20522009,-0.23638082,-0.21950746,-0.20983946,-0.2,-0.20341168,-0.23681127,-0.2310631,-0.21765965,-0.22786397,-0.23,-0.2032663,-0.2137783,-0.24060878,-0.21113336,-0.21435088,-0.215,-0.193167,-0.21706131,-0.22730553,-0.23581028,-0.24482363,-0.235,-0.21885347,-0.21119022,-0.23572561,-0.22470291,-0.2105449,-0.215,-0.20728412,-0.22931454,-0.21326676,-0.20492674,-0.22497703,-0.2,-0.22981149,-0.24761996,-0.20336048,-0.20750791,-0.21345823,-0.205,-0.2126572,-0.22562777,-0.22858748,-0.20428455,-0.20349781,-0.225,-0.22182858,-0.21827596,-0.22147153,-0.2183637,-0.21379827,-0.205,-0.20704728,-0.22279587,-0.22006357,-0.20432183,-0.20003547,-0.2,-0.1922966,-0.18378301,-0.19228494,-0.20196503,-0.19982609,-0.205,-0.19806822,-0.19270419,-0.2106432,-0.19286007,-0.18285313,-0.205,-0.17677872,-0.16913168,-0.18845642,-0.17360345,-0.18408519,-0.19,-0.18814972,-0.19322717,-0.18870725,-0.20890887,-0.19964266,-0.185,-0.19894053,-0.20095907,-0.21258774,-0.20301527,-0.20330854,-0.215,-0.200029,-0.21234661,-0.20543054,-0.197474,-0.21669456,-0.195,-0.18259513,-0.19523,-0.18819618,-0.17601898,-0.16811813,-0.155,-0.14950405,-0.15104333,-0.15024124,-0.15775499,-0.15393929,-0.165,-0.16959624,-0.15136746,-0.18785137,-0.20230207,-0.19112399,-0.215,-0.21300493,-0.20167021,-0.20211181,-0.2274189,-0.2305812,-0.2,-0.20730872,-0.21333249,-0.22074978,-0.2130251,-0.20745556,-0.22,-0.19615345,-0.21538395,-0.21844803,-0.20870623,-0.23697363,-0.205,-0.21643975,-0.23305093,-0.20619124,-0.22331277,-0.20958647,-0.205,-0.21262686,-0.19940421,-0.20400888,-0.20664845,-0.22337286,-0.215,-0.19488162,-0.20238404,-0.2063197,-0.20058453,-0.18225119,-0.185,-0.15803048,-0.08905364,-0.026428219,0.06184141,0.12297402,0.155,0.17879021,0.18199562,0.182737,0.12162173,0.026681898,-0.075,-0.19586368,-0.26415023,-0.30281705,-0.30807394,-0.2457436,-0.2,-0.18716909,-0.17968123,-0.17892978,-0.16215672,-0.1631897,-0.175,-0.15690875,-0.16553402,-0.18126951,-0.18122119,-0.19091244,-0.18,-0.18197225,-0.19123709,-0.18920875,-0.18667814,-0.1669211,-0.175,-0.1774304,-0.17823575,-0.20332606,-0.18256184,-0.17774509,-0.18,-0.15919636,-0.17668249,-0.17010453,-0.1635004,-0.18811095,-0.175,-0.17126682,-0.18470016,-0.16719143,-0.17350249,-0.19690152,-0.18,-0.16173953,-0.15466592,-0.16376443,-0.17560981,-0.15713446,-0.175,-0.1743596,-0.12985052,-0.15001076,-0.16297208,-0.1495876,-0.16,-0.13833217,-0.10337032,-0.10849582,-0.13369949,-0.13278727,-0.125,-0.118388966,-0.10386243,-0.11155467,-0.101745315,-0.083419174,-0.08,-0.05842294,-0.055263948,-0.063353114,-0.055927776,-0.041422967,-0.025,-0.02779152,-0.037794273,-0.0391269,-0.020454274,-0.01169106,-0.035,-0.033715945,-0.017808214,-0.011907115,-0.011565194,-0.021323517,-0.015,-0.016481683,-0.033357374,-0.032308046,-0.030012237,-0.02980916,-0.035,-0.051888492,-0.064894035,-0.07964019,-0.09593421,-0.10693883,-0.115,-0.119149454,-0.12581168,-0.13605234,-0.14151351,-0.14640324,-0.155,-0.16259165,-0.18088482,-0.19747725,-0.19177729,-0.19768329,-0.2,-0.17785107,-0.1759583,-0.18490209,-0.19465902,-0.1992821,-0.195,-0.21222018,-0.21283919,-0.2174395,-0.24119,-0.21803106,-0.205,-0.21151543,-0.2029832,-0.21277332,-0.21157491,-0.20498554,-0.21,-0.2178887,-0.22153345,-0.20136291,-0.19595928,-0.1927606,-0.19,-0.21659242,-0.2180905,-0.21743333,-0.21400107,-0.18633534,-0.2,-0.20798942,-0.19893664,-0.21636082,-0.20736091,-0.202119,-0.215,-0.19826806,-0.19760439,-0.21095704,-0.19829501,-0.19713259,-0.21,-0.20265652,-0.19642164,-0.2081943,-0.21849212,-0.22593866,-0.215,-0.19132127,-0.19900736,-0.20466982,-0.18992424,-0.19876108,-0.215,-0.21939664,-0.22331424,-0.22550292,-0.21205379,-0.19327459,-0.21,-0.22655897,-0.21415897,-0.22750662,-0.24039312,-0.22131415,-0.225,-0.23639102,-0.22312397,-0.22327009,-0.23213582,-0.22929312,-0.23,-0.22684841,-0.21902215,-0.22837745,-0.2437834,-0.22291183,-0.2,-0.22503927,-0.22878769,-0.21433595,-0.2349375,-0.23799092,-0.23,-0.22759049,-0.21228099,-0.21394692,-0.222261,-0.22576395,-0.22,-0.19326985,-0.19789498,-0.2214956,-0.20526537,-0.20356011,-0.225,-0.21301018,-0.21292305,-0.22382309,-0.20813148,-0.21331765,-0.22,-0.20544969,-0.21895602,-0.23935589,-0.22778678,-0.22089079,-0.23,-0.21865438,-0.20627148,-0.20245004,-0.20155361,-0.2106106,-0.195,-0.1984714,-0.22831163,-0.22474387,-0.22938296,-0.22699554,-0.215,-0.22454241,-0.219937,-0.22798845,-0.23358014,-0.22472343,-0.235,-0.2317358,-0.23095334,-0.2381577,-0.23136963,-0.22359651,-0.22,-0.2246631,-0.22348134,-0.23323171,-0.23844533,-0.23051076,-0.25,-0.23684914,-0.21836238,-0.23476592,-0.22356023,-0.23575644,-0.25,-0.23123084,-0.23664674,-0.24018161,-0.2403148,-0.22458297,-0.21,-0.23664938,-0.232512,-0.22533931,-0.23565443,-0.20095588,-0.18,-0.19775596,-0.19569042,-0.18779226,-0.19805837,-0.16266072
