-0.28786284,-0.29244134,-0.27978456,-0.28670737,-0.28718543,-0.28805873,-0.29222414,-0.28413916,-0.28728864,-0.30394164,-0.30719575,-0.33677536,-0.36469355,-0.4037058,-0.41316688,-0.45794925,-0.5144078,-0.50951296,-0.40913975,-0.27801165,-0.12653714,0.14837337,0.4590678,0.70697707,0.7933479,0.65336156,0.28313485,-0.15040255,-0.4085173,-0.473932,-0.42413643,-0.35768932,-0.34521776,-0.3412801,-0.3472074,-0.35483196,-0.3499712,-0.33811206,-0.3336799,-0.33925733,-0.34049195,-0.33780813,-0.32945657,-0.32661983,-0.34454522,-0.3576589,-0.35017067,-0.33901766,-0.32738653,-0.3353667,-0.35895485,-0.34306976,-0.34021062,-0.33922553,-0.3474416,-0.35942042,-0.348651,-0.34314358,-0.33895177,-0.34094208,-0.34721026,-0.3417963,-0.333808,-0.32320815,-0.32587144,-0.337644,-0.34082633,-0.32095245,-0.3221442,-0.33928895,-0.34916735,-0.34892437,-0.33645433,-0.3353816,-0.33435765,-0.3492427,-0.354292,-0.32969564,-0.32147253,-0.3228219,-0.33125845,-0.32561356,-0.30757028,-0.31347483,-0.32187408,-0.33134866,-0.32768744,-0.32623374,-0.31845498,-0.3240667,-0.3471666,-0.3393006,-0.32458314,-0.32119703,-0.33694062,-0.3500017,-0.35552144,-0.34203917,-0.32686737,-0.3354013,-0.34271353,-0.34142599,-0.33632654,-0.323445,-0.32220542,-0.33960596,-0.3281193,-0.32297343,-0.30631408,-0.3129105,-0.31072322,-0.3023217,-0.27469677,-0.26435933,-0.25800824,-0.26244414,-0.25323212,-0.22536042,-0.22530378,-0.23131225,-0.22062187,-0.2187844,-0.2149302,-0.21209927,-0.21601516,-0.23088418,-0.22284608,-0.21807943,-0.20308733,-0.22135425,-0.23377113,-0.2311734,-0.21458209,-0.19849275,-0.22185759,-0.23045425,-0.22820427,-0.21704465,-0.2147987,-0.21502943,-0.22818132,-0.23044457,-0.21132539,-0.2100218,-0.21600848,-0.22856477,-0.23440489,-0.22244918,-0.22906671,-0.23290363,-0.245545,-0.24937892,-0.24010591,-0.22382383,-0.23358347,-0.24357808,-0.24613479,-0.23358811,-0.23585445,-0.23721643,-0.2639128,-0.24646321,-0.25122136,-0.24372762,-0.24586332,-0.25644156,-0.2469514,-0.23790099,-0.23599531,-0.24895523,-0.25848848,-0.25455,-0.23987702,-0.2488361,-0.25987557,-0.26861075,-0.25878018,-0.25469208,-0.254958,-0.25524142,-0.25887656,-0.2612246,-0.24504827,-0.22408701,-0.22602671,-0.24122843,-0.23692481,-0.23021346,-0.22623342,-0.23848954,-0.25285748,-0.23944555,-0.23094401,-0.22492044,-0.2465322,-0.2588734,-0.24387634,-0.23682426,-0.22310407,-0.21917793,-0.22507992,-0.21704409,-0.20162807,-0.1979992,-0.18997496,-0.19053265,-0.17592083,-0.16320577,-0.15349734,-0.15289904,-0.15510184,-0.13765736,-0.12437552,-0.11208096,-0.120454475,-0.14483532,-0.15013835,-0.15038757,-0.14486772,-0.14402375,-0.15584199,-0.15025656,-0.13190679,-0.11101765,-0.12744017,-0.17420687,-0.19248955,-0.18079872,-0.17952396,-0.20898737,-0.22184315,-0.23474115,-0.22916101,-0.24504007,-0.2601258,-0.27871796,-0.27736887,-0.2633503,-0.26503518,-0.27535582,-0.28203106,-0.27204952,-0.27226,-0.2773056,-0.288001,-0.29942474,-0.29358172,-0.27931124,-0.26388872,-0.28049082,-0.2897533,-0.27522883,-0.2898259,-0.30613798,-0.35307688,-0.41007397,-0.41372195,-0.4352939,-0.5010421,-0.49435994,-0.41484907,-0.27374515,-0.10483927,0.14325729,0.44098675,0.69153506,0.8497614,0.9486789,0.9732645,0.87763107,0.6748386,0.435085,0.18214229,-0.09263972,-0.32684574,-0.45660245,-0.45840088,-0.40559426,-0.34929588,-0.3482116,-0.3601152,-0.35759032,-0.3509068,-0.35407305,-0.3446513,-0.3493171,-0.3337575,-0.33609116,-0.33397242,-0.33596915,-0.34693193,-0.3466735,-0.33302686,-0.3382741,-0.3499419,-0.35092828,-0.35162464,-0.33026835,-0.333031,-0.34205237,-0.3597803,-0.3536507,-0.35849783,-0.35401562,-0.35878167,-0.3863708,-0.36764926,-0.34081325,-0.3399999,-0.3462605,-0.36267018,-0.3754662,-0.34116083,-0.3470781,-0.3463334,-0.3583533,-0.35944036,-0.34459814,-0.33953094,-0.33992973,-0.35809895,-0.3657175,-0.34633464,-0.34451193,-0.35819134,-0.36660647,-0.37733543,-0.35207704,-0.34337252,-0.35293785,-0.3597721,-0.36096185,-0.3544903,-0.34432703,-0.36029643,-0.35777333,-0.35263154,-0.3494514,-0.3395987,-0.35481304,-0.35850233,-0.36742502,-0.34906897,-0.34918845,-0.36711055,-0.37245592,-0.38249388,-0.37620872,-0.37808463,-0.38347542,-0.39089128,-0.39287484,-0.37279403,-0.36354262,-0.36579546,-0.37698412,-0.35750383,-0.33052918,-0.31319064,-0.30905262,-0.31014574,-0.2915827,-0.27306068,-0.25053787,-0.25817952,-0.2684521,-0.25974533,-0.2518854,-0.2505674,-0.24573188,-0.2707217,-0.25435072,-0.2388321,-0.24230373,-0.2499936,-0.24896842,-0.2454043,-0.23469229,-0.23155434,-0.2492529,-0.25941834,-0.2524301,-0.24523541,-0.2388565,-0.24419218,-0.26612318,-0.25648266,-0.24004385,-0.23808607,-0.2585222,-0.27683797,-0.27151862,-0.26674342,-0.2681137,-0.2667927,-0.28143808,-0.28293863,-0.2808979,-0.27594343,-0.28542665,-0.29246068,-0.28601262,-0.28366634,-0.28866342,-0.29276574,-0.30209973,-0.30049717,-0.29061303,-0.28287205,-0.294041,-0.3095451,-0.2905391,-0.29941276,-0.28581637,-0.29365313,-0.29419544,-0.29021436,-0.28107938,-0.2851702,-0.3015773,-0.30249202,-0.2970833,-0.29563358,-0.28056416,-0.3019604,-0.31379265,-0.3098416,-0.2921109,-0.28646907,-0.29792026,-0.3053069,-0.2988133,-0.3006069,-0.28610912,-0.2998795,-0.31955218,-0.30762726,-0.2879056,-0.27770737,-0.29778543,-0.32672352,-0.3146792,-0.30490354,-0.29086232,-0.30595836,-0.29608002,-0.27851543,-0.26109132,-0.25082466,-0.25312713,-0.23966134,-0.23306814,-0.22406588,-0.22305028,-0.215666,-0.2096742,-0.20550998,-0.19040772,-0.16905233,-0.17058371,-0.18798073,-0.19536948,-0.18876939,-0.18822977,-0.18670475,-0.19686258,-0.19835523,-0.19239151,-0.17780827,-0.17089154,-0.18828827,-0.22056802,-0.23110019,-0.2409664,-0.25917384,-0.2908701,-0.29978615,-0.3088094,-0.30853197,-0.3154891,-0.31256917,-0.31486368,-0.31161243,-0.3052153,-0.3192183,-0.31578103,-0.31923628,-0.3144431,-0.3127014,-0.31514102,-0.3242696,-0.3239305,-0.3107639,-0.31777126,-0.33106667,-0.33338657,-0.33466744,-0.31278682,-0.32665464,-0.32148874,-0.33564815,-0.34698433,-0.34787673,-0.39194468,-0.43329233,-0.4509417,-0.48464724,-0.53333396,-0.50163805,-0.40925622,-0.28013507,-0.11083365,0.1516069,0.4592385,0.70399,0.8253579,0.74272156,0.41572088,-0.005679717,-0.3353571,-0.48178738,-0.49451977,-0.44009635,-0.39981508,-0.39699888,-0.4033627,-0.40335518,-0.37586161,-0.37006092,-0.37238058,-0.3993837,-0.391421,-0.3781066,-0.36811253,-0.3748113,-0.3908187,-0.37708715,-0.36632708,-0.35968807,-0.3782839,-0.39743647,-0.40793335,-0.3877276,-0.3781869,-0.39073876,-0.39008746,-0.3925824,-0.3689519,-0.37693083,-0.3833571,-0.39067867,-0.37632227,-0.38089442,-0.3767519,-0.37493232,-0.38690558,-0.37671283,-0.36794457,-0.3663677,-0.37207788,-0.38462156,-0.37264708,-0.36371088,-0.36773434,-0.3805977,-0.37980026,-0.38527387,-0.37438557,-0.35909677,-0.37491602,-0.3907905,-0.38202047,-0.3635741,-0.3523694,-0.36366537,-0.37763023,-0.37102336,-0.36626387,-0.35759348,-0.37506592,-0.37812904,-0.37730157,-0.3752806,-0.36138,-0.37160474,-0.38361636,-0.38323185,-0.38605168,-0.38784838,-0.41556215,-0.4090529,-0.4171789,-0.40999767,-0.40449,-0.4080661,-0.4248382,-0.4161107,-0.3948546,-0.38436076,-0.37803072,-0.37393326,-0.36683518,-0.32445753,-0.30840015,-0.30410546,-0.30502418,-0.2865116,-0.27053878,-0.26131323,-0.2595797,-0.2610519,-0.26857498,-0.24593888,-0.23195273,-0.24721678,-0.25517297,-0.25365752,-0.23011658,-0.22083649,-0.22984613,-0.24334462,-0.2381284,-0.22044258,-0.22319528,-0.22867735,-0.22670022,-0.2280361,-0.21696065,-0.21521688,-0.21410336,-0.23854877,-0.23912208,-0.24541606,-0.23986554,-0.23638095,-0.2634581,-0.2428584,-0.23857914,-0.23623112,-0.23560594,-0.24291761,-0.25244585,-0.23595554,-0.23548642,-0.24370384,-0.26015523,-0.2564079,-0.24331622,-0.23258367,-0.24373491,-0.26111764,-0.24678977,-0.23794633,-0.23585868,-0.25230485,-0.25617236,-0.25851718,-0.2453971,-0.23819141,-0.2512899,-0.26128668,-0.26383862,-0.2580807,-0.25380886,-0.2593384,-0.26410812,-0.2598448,-0.2506643,-0.24177738,-0.2356632,-0.24843885,-0.24972036,-0.23277083,-0.22530258,-0.24258207,-0.25866377,-0.26035336,-0.24102841,-0.24281459,-0.2486627,-0.24313347,-0.23887263,-0.21766803,-0.20324926,-0.20907415,-0.21819094,-0.19194327,-0.1730545,-0.16801576,-0.1726111,-0.16121137,-0.1484409,-0.13193949,-0.116519466,-0.13538325,-0.12587166,-0.1289438,-0.12612996,-0.13067253,-0.13941759,-0.1618692,-0.15514408,-0.13542314,-0.1278276,-0.13879171,-0.13055544,-0.12422992,-0.11938541,-0.1581564,-0.20130134,-0.20571119,-0.2179645,-0.23243132,-0.22696035,-0.25267383,-0.2591365,-0.2545807,-0.23811154,-0.24496216,-0.2683821,-0.28004724,-0.28209105,-0.26095447,-0.2725696,-0.2779811,-0.28219107,-0.2814214,-0.2660289,-0.25697345,-0.2761677,-0.27645087,-0.28044793,-0.27639624,-0.26828286,-0.27412698,-0.2933783,-0.29342553,-0.27866855,-0.32623902,-0.36287922,-0.4064131,-0.43030256,-0.46338654,-0.49344626,-0.4364904,-0.32926852,-0.18223381,0.04169365,0.34733668,0.6352214,0.81063354,0.82391506,0.616512,0.19351915,-0.20894554,-0.4251916,-0.44961601,-0.3857907,-0.34060654,-0.34162596,-0.35077745,-0.3485502,-0.34514588,-0.34000266,-0.33590972,-0.34414598,-0.35055786,-0.3384701,-0.33186242,-0.35799468,-0.34243444,-0.3419739,-0.31976667,-0.33934173,-0.33819276,-0.33861557,-0.33408204,-0.32954845,-0.33165404,-0.34714574,-0.3421219,-0.34374318,-0.33923286,-0.34083128,-0.33888245,-0.34612235,-0.3482548,-0.34455565,-0.33225265,-0.337286,-0.34092692,-0.34392014,-0.32054397,-0.3231054,-0.3314395,-0.34732378,-0.34426123,-0.33046764,-0.32042214,-0.33088297,-0.34084874,-0.33936197,-0.330335,-0.32858872,-0.34435195,-0.3496126,-0.34812874,-0.32930207,-0.3239367,-0.33574918,-0.35043293,-0.33051786,-0.3192125,-0.32018098,-0.32297325,-0.32708842,-0.32597026,-0.31570372,-0.32079247,-0.3264003,-0.33605742,-0.32799008,-0.3236476,-0.32018468,-0.3381839,-0.3353521,-0.33498383,-0.32505906,-0.32156658,-0.32973582,-0.33025703,-0.33426806,-0.31947663,-0.31481218,-0.31462908,-0.319929,-0.30587763,-0.28385723,-0.26694435,-0.2724515,-0.26640335,-0.2584747,-0.24187104,-0.22731164,-0.23140371,-0.2423009,-0.2393309,-0.21774332,-0.21842119,-0.21988069,-0.23728849,-0.23163228,-0.23232123,-0.22227594,-0.23046784,-0.23751819,-0.23578604,-0.21599078,-0.21510778,-0.22433282,-0.23922278,-0.23779939,-0.22164044,-0.23460753,-0.24112682,-0.24846043,-0.24962698,-0.23548238,-0.2385713,-0.2429328,-0.25988227,-0.2527735,-0.2512232,-0.24552639,-0.2530127,-0.26305017,-0.26346102,-0.2543395,-0.22959894,-0.24513683,-0.2616477,-0.273786,-0.26048395,-0.2523739,-0.27721256,-0.27564546,-0.26974085,-0.26730308,-0.25694674,-0.26917362,-0.28218287,-0.27542815,-0.25645074,-0.25250983,-0.25811052,-0.27574727,-0.26975006,-0.25675884,-0.2692982,-0.27700046,-0.28519434,-0.28001884,-0.27649486,-0.27081263,-0.2738613,-0.27975586,-0.27916935,-0.26270792,-0.23824614,-0.2514574,-0.26142213,-0.25546733,-0.22674255,-0.21922413,-0.22011732,-0.22905262,-0.22175701,-0.1902146,-0.18845832,-0.17999338,-0.17978553,-0.16243145,-0.1502791,-0.13279875,-0.15769675,-0.15604058,-0.17261057,-0.1812696,-0.17454913,-0.16813064,-0.18026243,-0.1722371,-0.15219782,-0.13561569,-0.1565205,-0.19243473,-0.2328438,-0.2334653,-0.24293849,-0.26850805,-0.28094113,-0.29868287,-0.27899846,-0.27594694,-0.29904124,-0.2993328,-0.30759677,-0.29565698,-0.29244542,-0.31749344,-0.32426384,-0.31941098,-0.30269137,-0.29557076,-0.31226218,-0.3116246,-0.30807114,-0.30526432,-0.30416444,-0.31234956,-0.3214643,-0.34131753,-0.34956512,-0.3871531,-0.41314512,-0.43848386,-0.44546583,-0.4599495,-0.5118255,-0.5327734,-0.4715648,-0.3504054,-0.1744039,0.07245938,0.3816712,0.646938,0.7611483,0.69215256,0.36572865,-0.055186313,-0.35401618,-0.486127,-0.46384948,-0.39583853,-0.37273028,-0.3821104,-0.39209348,-0.36833563,-0.36531544,-0.37040526,-0.37607384,-0.3877882,-0.3715112,-0.36743185,-0.3672546,-0.38084581,-0.3764865,-0.35336697,-0.3549683,-0.36496717,-0.3695386,-0.3686289,-0.35797784,-0.36350942,-0.3715814,-0.3866142,-0.39306563,-0.38096985,-0.37284148,-0.38030556,-0.39148092,-0.3937134,-0.37834114,-0.3681861,-0.37703934,-0.38855705,-0.4174886,-0.3930107,-0.37347627,-0.36495215,-0.3830995,-0.37947434,-0.3625192,-0.35841882,-0.37123296,-0.377752,-0.38646632,-0.3664427,-0.37684768,-0.39015502,-0.4029421,-0.39454028,-0.38516262,-0.36848065,-0.37940255,-0.3821807,-0.37927312,-0.3787473,-0.3752543,-0.39914867,-0.39998832,-0.3980866,-0.37903503,-0.37665808,-0.3883935,-0.40294787,-0.4019736,-0.39180967,-0.38156837,-0.40430087,-0.40903747,-0.4220879,-0.40545014,-0.395453,-0.40871125,-0.41509962,-0.4258726,-0.4129512,-0.40607876,-0.411798,-0.39980587,-0.38573435,-0.3482474,-0.3397251,-0.34261948,-0.35564804,-0.32674277,-0.30294213,-0.2883141,-0.28424618,-0.2979656,-0.28993255,-0.26999775,-0.26605788,-0.27534643,-0.2874986,-0.29097402,-0.27200234,-0.27946162,-0.2822139,-0.28861892,-0.29502684,-0.27776158,-0.26821682,-0.27765387,-0.30307195,-0.3056043,-0.2940738,-0.27774838,-0.2807084,-0.2928815,-0.29040885,-0.2900151,-0.2894749,-0.29421082,-0.3027055,-0.29810587,-0.3006235,-0.2886795,-0.30573955,-0.31100076,-0.30319417,-0.30008852,-0.29759678,-0.2935377,-0.3186438,-0.31827834,-0.29972667,-0.30870113,-0.32000113,-0.3291837,-0.33467057,-0.31930315,-0.3147395,-0.3178261,-0.34434092,-0.35413095,-0.3304717,-0.3176988,-0.32789904,-0.3361003,-0.3425831,-0.31645605,-0.3095452,-0.31290552,-0.32194138,-0.32659078,-0.3137812,-0.3147555,-0.32842302,-0.34391582,-0.33755413,-0.31108728,-0.30781853,-0.3005156,-0.30385527,-0.2939722,-0.2778818,-0.2728248,-0.29039112,-0.28416058,-0.28581157,-0.26341614,-0.24789384,-0.25078195,-0.24113716,-0.23053513,-0.21193118,-0.20449017,-0.20486236,-0.21002716,-0.2214457,-0.21504608,-0.21811691,-0.24278583,-0.23923536,-0.23075363,-0.21588208,-0.20624258,-0.20436469,-0.1944773,-0.23186566,-0.2560198,-0.27200148,-0.28520474,-0.31172356,-0.33567882,-0.33305973,-0.33120587,-0.34051543,-0.33059976,-0.34083143,-0.33037287,-0.33658746,-0.33990297,-0.35029295,-0.3591853,-0.35470212,-0.3543993,-0.36251208,-0.36981943,-0.3584493,-0.3545955,-0.3552992,-0.35756996,-0.37173173,-0.3909556,-0.41892782,-0.45357516,-0.47590867,-0.4722847,-0.4771039,-0.5154913,-0.5673112,-0.5989549,-0.5435147,-0.43755692,-0.305356,-0.13950656,0.09340642,0.43347612,0.69018906,0.81715435,0.6803644,0.30490232,-0.122345984,-0.40335068,-0.49596086,-0.49779385,-0.45553017,-0.44337738,-0.42303228,-0.40950024,-0.39439297,-0.40286294,-0.4063063,-0.41396433,-0.39979187,-0.39610428,-0.40906674,-0.4088157,-0.40820348,-0.41017386,-0.40156108,-0.42116827,-0.41829214,-0.4271543,-0.4119059,-0.40470645,-0.40763825,-0.41277644,-0.41622725,-0.40256804,-0.39873612,-0.40464056,-0.4172981,-0.41690516,-0.39919615,-0.38189965,-0.39328682,-0.40460604,-0.40433905,-0.39774233,-0.3940968,-0.39891616,-0.4098387,-0.42651057,-0.41237852,-0.40652835,-0.41443518,-0.4243585,-0.4309421,-0.42580545,-0.40529722,-0.42350894,-0.43682224,-0.4263037,-0.4105149,-0.40340596,-0.4095365,-0.41386074,-0.4037153,-0.39074716,-0.39771736,-0.41435394,-0.41946444,-0.4256729,-0.4145474,-0.4122491,-0.4156052,-0.4243675,-0.44145322,-0.42901692,-0.42753512,-0.43364495,-0.44096315,-0.44330597,-0.4399957,-0.42220286,-0.42020085,-0.4277319,-0.43364283,-0.41569048,-0.3935489,-0.39327267,-0.38779724,-0.39096066,-0.372647,-0.37225595,-0.35723016,-0.3469965,-0.3394313,-0.31576112,-0.31581536,-0.3076049,-0.30421954,-0.30961624,-0.28592405,-0.28068325,-0.27805883,-0.29684022,-0.29941222,-0.2769536,-0.26876146,-0.27424002,-0.29602775,-0.28713617,-0.2766537,-0.26693118,-0.28277427,-0.28040105,-0.28084984,-0.27559587,-0.27342802,-0.28957474,-0.29011813,-0.29353625,-0.27471548,-0.27942306,-0.2786366,-0.299896,-0.2956271,-0.26803833,-0.26956207,-0.28405356,-0.2977347,-0.29599574,-0.28381622,-0.28554434,-0.2875927,-0.3013091,-0.30753675,-0.2898428,-0.28358814,-0.29569292,-0.30782154,-0.3165833,-0.3030714,-0.290705,-0.2997927,-0.31716025,-0.3109629,-0.3062092,-0.30029702,-0.31139588,-0.31573328,-0.30915135,-0.31106833,-0.30424714,-0.30469453,-0.3152479,-0.32352558,-0.30242994,-0.29384488,-0.29244974,-0.30938533,-0.30275857,-0.27302516,-0.25979066,-0.27126515,-0.2548595,-0.24995181,-0.22900978,-0.21449625,-0.22294539,-0.21735024,-0.21619745,-0.19558229,-0.19548471,-0.20409,-0.21019867,-0.19631931,-0.19298121,-0.20603907,-0.21838549,-0.22062698,-0.21626888,-0.17636004,-0.16046971,-0.14051174,-0.17080733,-0.22457455,-0.23851536,-0.23797327,-0.26221016,-0.28692782,-0.30688685,-0.3073671,-0.31395042,-0.339768,-0.33081362,-0.34657916,-0.33089814,-0.32002252,-0.33411372,-0.35644954,-0.35090283,-0.339648,-0.33453327,-0.3411814,-0.36165062,-0.35992935,-0.33294094,-0.32172772,-0.34431717,-0.3623009,-0.41197985,-0.43217495,-0.44659758,-0.49508473,-0.5544065,-0.5328663,-0.40590936,-0.2556347,-0.085740745,0.14749505,0.43653065,0.6894795,0.8209635,0.90844625,0.9158603,0.7748578,0.46217272,0.03694408,-0.3453758,-0.50443757,-0.4874972,-0.4231089,-0.40668222,-0.4029698,-0.4010309,-0.4185922,-0.4094854,-0.40460825,-0.40238586,-0.39692107,-0.39476016,-0.3924117,-0.3973413,-0.40752304,-0.41256216,-0.41553357,-0.40853378,-0.40850565,-0.40628394,-0.43080425,-0.44598132,-0.4387195,-0.41798446,-0.42580387,-0.42750493,-0.41996968,-0.39342374,-0.3919395,-0.40625846,-0.39946696,-0.4073503,-0.40661067,-0.39780647,-0.40819794,-0.4109055,-0.42070362,-0.41769326,-0.41675562,-0.42465305,-0.4471476,-0.45679033,-0.43291414,-0.41632444,-0.41018876,-0.41603416,-0.40975553,-0.3976247,-0.420727,-0.43578327,-0.45213392,-0.4686752,-0.44500384,-0.4169949,-0.40702203,-0.42300642,-0.42902875,-0.39664122,-0.3730945,-0.3870918,-0.43024147,-0.45806247,-0.44458184,-0.42892852,-0.45075938,-0.47165427,-0.46052483,-0.4081682,-0.39138815,-0.3890259,-0.4346462,-0.45089346,-0.4357763,-0.41129297,-0.40692875,-0.39082527,-0.38225588,-0.37509403,-0.37083933,-0.38763496,-0.40651765,-0.39833558,-0.39031282,-0.3732582,-0.35196173,-0.33773494,-0.34015247,-0.32680312,-0.33273357,-0.324251,-0.32634667,-0.32317203,-0.3191602,-0.32965335,-0.34815526,-0.33632937,-0.3152391,-0.3082497,-0.33013812,-0.35310173,-0.35458758,-0.33247176,-0.31847408,-0.29925537,-0.3294473,-0.3505064,-0.37164834,-0.35731348,-0.35128865,-0.36318612,-0.37847778,-0.3687139,-0.34274995,-0.31833127,-0.32139716,-0.34160158,-0.3712766,-0.3687394,-0.35387394,-0.3480668,-0.36911896,-0.36471167,-0.36166406,-0.34199297,-0.36198094,-0.382519,-0.3861075,-0.35671824,-0.363204,-0.38816667,-0.3876157,-0.38535488,-0.38856104,-0.41316605,-0.42280465,-0.38891292,-0.34811637,-0.35168386,-0.36504257,-0.3861793,-0.39465687,-0.3713231,-0.35671517,-0.35545453,-0.3507732,-0.35949787,-0.36360267,-0.34103325,-0.30555543,-0.298383,-0.33630565,-0.34949043,-0.33773494,-0.30480677,-0.29007375,-0.2813818,-0.2947565,-0.2573596,-0.2251793,-0.24153724,-0.26172572,-0.26551637,-0.25760746,-0.25098795,-0.26074046,-0.270405,-0.26466447,-0.24006088,-0.20955038,-0.24330534,-0.27939406,-0.32160667,-0.32759246,-0.34262964,-0.34764975,-0.37103248,-0.38840085,-0.36732212,-0.34171936,-0.33632347,-0.33988678,-0.3756466,-0.38349068,-0.37572774,-0.353171,-0.35480076,-0.37217298,-0.38357165,-0.38144815,-0.3870778,-0.39086595,-0.38947147,-0.3810715,-0.39047658,-0.4034897,-0.3971337,-0.41298297,-0.457265,-0.4580859,-0.44941458,-0.49313346,-0.5875768,-0.63045317,-0.5936744,-0.5051936,-0.37420174,-0.19372103,0.09974085,0.43163246,0.6967362,0.7888783,0.6233569,0.23067302,-0.1801211,-0.44497702,-0.51386815,-0.51047516,-0.45607972,-0.41709736,-0.39650157,-0.40829706,-0.39185706,-0.3633861,-0.3366731,-0.35039574,-0.364908,-0.37122005,-0.3686887,-0.39064232,-0.4054983,-0.38735163,-0.3619406,-0.33808783,-0.34005782,-0.34713805,-0.34704685,-0.36253023,-0.3772421,-0.35252395,-0.32860702,-0.35000318,-0.3467211,-0.3324129,-0.32656857,-0.32822582,-0.33928496,-0.33509412,-0.34723157,-0.38370776,-0.38036188,-0.35065475,-0.3425154,-0.3236793,-0.30914193,-0.33116004,-0.37194854,-0.38134602,-0.36043745,-0.36166403,-0.34846526,-0.3173446,-0.29283202,-0.27623406,-0.2902647,-0.29219761,-0.31497714,-0.31927955,-0.31177047,-0.29954326,-0.31450194,-0.32724345,-0.30624202,-0.26792002,-0.2811463,-0.30663872,-0.30212218,-0.28527334,-0.27441108,-0.27643093,-0.29842973,-0.33952582,-0.34945267,-0.33425063,-0.3322506,-0.33587945,-0.33434597,-0.3218019,-0.29846886,-0.29557198,-0.2907474,-0.29856512,-0.28150696,-0.25777927,-0.24586876,-0.24531104,-0.23537923,-0.2292591,-0.20817746,-0.16947372,-0.19305886,-0.2063917,-0.17676425,-0.13335243,-0.12791456,-0.15804806,-0.18657659,-0.18461321,-0.13725702,-0.09118015,-0.11614401,-0.13246657,-0.12808815,-0.12280803,-0.12438105,-0.12628989,-0.09255325,-0.08275241,-0.081695415,-0.08537219,-0.09739381,-0.12948033,-0.14983632,-0.12486832,-0.11363184,-0.11534077,-0.14125112,-0.13284586,-0.08821119,-0.078410216,-0.1001173,-0.13555846,-0.14666921,-0.115020804,-0.1003845,-0.103715256,-0.12339002,-0.14352901,-0.11918725,-0.103208505,-0.13049537,-0.1413274,-0.1283403,-0.0926797,-0.10628719,-0.13764337,-0.15415704,-0.15451254,-0.14706165,-0.1267347,-0.09624581,-0.12372728,-0.1516022,-0.13071415,-0.13204736,-0.14995082,-0.13073312,-0.08568567,-0.048134565,-0.059620403,-0.06611052,-0.077528305,-0.08289451,-0.091140784,-0.08469887,-0.07778647,-0.0831433,-0.09791548,-0.08603458,-0.05550904,-0.011177262,0.011253152,0.01943371,0.033239827,0.04761585,0.04338085,0.042180434,0.04423009,0.06635285,0.08103375,0.055671707,-0.006316922,-0.03467521,-0.027805382,-0.001094601,0.034482554,0.06476271,0.093512565,0.07978786,0.05630079,0.02370713,-0.007126019,-0.03296729,-0.047227472,-0.042985603,-0.056309655,-0.09692524,-0.093522266,-0.052055143,-0.02588615,-0.0674803,-0.103065036,-0.09446435,-0.07793982,-0.0874906,-0.11441038,-0.12817788,-0.12217216,-0.090449505,-0.0834383,-0.07092864,-0.07064016,-0.07566813,-0.091024905,-0.09231707,-0.08971777,-0.08508348,-0.072985,-0.06304925,-0.09349001,-0.15015912,-0.18654364,-0.21365659,-0.24785101,-0.2490353,-0.15328723,-0.0334752,0.09984749,0.2825537,0.5552671,0.8303473,0.95747143,0.93035436,0.71464825,0.3258024,-0.04746854,-0.2324423,-0.23656267,-0.13485304,-0.10352513,-0.12562884,-0.14171104,-0.13411191,-0.100588396,-0.082871206,-0.07885938,-0.113040514,-0.14311992,-0.12527995,-0.10955346,-0.0954242,-0.10990885,-0.119934954,-0.121075995,-0.11245837,-0.09185968,-0.09491614,-0.11062885,-0.09159998,-0.08713694,-0.09370352,-0.11025153,-0.1315616,-0.12533365,-0.10435698,-0.10237446,-0.115969606,-0.123993695,-0.12073082,-0.12864916,-0.13677928,-0.14614584,-0.13013504,-0.10908871,-0.094408885,-0.09992581,-0.10794409,-0.11783221,-0.098722324,-0.097744204,-0.10324096,-0.10768988,-0.11032876,-0.10361017,-0.10381507,-0.097353555,-0.116628304,-0.114379495,-0.09260984,-0.09420041,-0.08410347,-0.095453024,-0.0995304,-0.10071244,-0.09901403,-0.10422306,-0.12271946,-0.13251697,-0.12539393,-0.13231255,-0.12431632,-0.13178733,-0.13710785,-0.13055332,-0.12353052,-0.13238996,-0.15035506,-0.1570462,-0.11431666,-0.0982031,-0.103704035,-0.10639684,-0.1015481,-0.09869348,-0.122838214,-0.13281642,-0.13069847,-0.1308656,-0.123467915,-0.10112523,-0.10976105,-0.12885465,-0.13231799,-0.109880015,-0.09208896,-0.07490908,-0.08418099,-0.05403344,-0.02931484,-0.026570328,-0.03183095,-0.040796805,-0.023754023,0.014853666,0.000620931,-0.019606605,-0.025254114,-0.041400257,-0.048485734,-0.05550911,-0.03319699,-0.029016515,-0.019725116,-0.028274745,-0.011866115,-0.016816426,-0.048076868,-0.06347808,-0.057714615,-0.041571382,-0.047668383,-0.037499923,-0.038351208,-0.024617609,-0.024236355,-0.03542914,-0.048490036,-0.066515215,-0.047726274,-0.064005785,-0.06291167,-0.07808617,-0.0905003,-0.082691014,-0.07407592,-0.07524444,-0.08385978,-0.090830505,-0.06926272,-0.06677354,-0.07454517,-0.09288062,-0.10239154,-0.10459132,-0.10540479,-0.10761283,-0.12125541,-0.12812032,-0.11745088,-0.11227508,-0.10573509,-0.100696474,-0.104929596,-0.10627113,-0.11376317,-0.1148957,-0.12865558,-0.13649109,-0.13105069,-0.119791724,-0.09922556,-0.09385891,-0.10086215,-0.08910964,-0.070516475,-0.06612452,-0.09065328,-0.080529146,-0.06910158,-0.054980237,-0.05627851,-0.056407284,-0.04348603,-0.044785883,-0.037167504,-0.052209508,-0.060891233,-0.068321556,-0.05097573,-0.06354494,-0.057002828,-0.054327853,-0.024427703,-0.019417835,-0.040558115,-0.07798876,-0.11735707,-0.12475424,-0.13176897,-0.12795544,-0.14764519,-0.17388064,-0.17827494,-0.17185925,-0.18402316,-0.20195496,-0.2227137,-0.21191087,-0.2181008,-0.21111262,-0.2322303,-0.22622675,-0.2364017,-0.23152277,-0.23363453,-0.22805032,-0.23182753,-0.23495132,-0.24953645,-0.23295814,-0.24472715,-0.24712096,-0.24385121,-0.24617675,-0.24230348,-0.2797346,-0.33652696,-0.36526603,-0.37801594,-0.41502,-0.45684415,-0.4387951,-0.31585166,-0.14474621,0.03640415,0.2730156,0.5586352,0.784804,0.9233577,0.85594773,0.56062436,0.1310143,-0.25370458,-0.43505788,-0.47168654,-0.46527445,-0.4393232,-0.40063536,-0.3367833,-0.32693237,-0.3339781,-0.34032384,-0.33808127,-0.32725748,-0.32428902,-0.3319414,-0.35452023,-0.35335693,-0.34193507,-0.34156471,-0.35679954,-0.36999694,-0.36907542,-0.35288206,-0.34751216,-0.3720887,-0.37587133,-0.37231344,-0.3571669,-0.36493015,-0.36006048,-0.3665149,-0.37768534,-0.35924056,-0.34089962,-0.36159807,-0.3688367,-0.3566386,-0.36346874,-0.3534419,-0.3713725,-0.37951404,-0.38112485,-0.366775,-0.3670015,-0.3809135,-0.38415796,-0.39025354,-0.38202554,-0.37955222,-0.3867954,-0.4008797,-0.3968002,-0.38180473,-0.37952662,-0.38690072,-0.39193943,-0.38670772,-0.37999174,-0.3794255,-0.38093853,-0.3830359,-0.39424762,-0.38690218,-0.38974547,-0.4033705,-0.40648565,-0.40717056,-0.40054217,-0.39314437,-0.406582,-0.419458,-0.41569108,-0.4095276,-0.39973566,-0.41106516,-0.4098587,-0.43808317,-0.4196182,-0.409683,-0.40570077,-0.41526425,-0.42889145,-0.40823582,-0.40816143,-0.40675974,-0.41269392,-0.4049309,-0.39595005,-0.38584694,-0.38853619,-0.38226345,-0.38138285,-0.34775096,-0.3329647,-0.33581215,-0.3306691,-0.32648563,-0.3056487,-0.3036478,-0.29442322,-0.30088815,-0.30283466,-0.2834974,-0.2875079,-0.29765236,-0.29792017,-0.30579093,-0.27833506,-0.2724485,-0.27828228,-0.29524082,-0.29813233,-0.2873729,-0.2843819,-0.28547445,-0.29365405,-0.30758673,-0.2993271,-0.29773283,-0.30004042,-0.30947572,-0.3089249,-0.30487025,-0.3026574,-0.29558966,-0.30787104,-0.31247413,-0.31170714,-0.30055138,-0.30655444,-0.32198206,-0.3393496,-0.33298957,-0.32849354,-0.33809566,-0.3406016,-0.3516163,-0.34378266,-0.33520594,-0.3489908,-0.35070044,-0.3589874,-0.3363416,-0.33417147,-0.3488722,-0.3550091,-0.35965556,-0.3536753,-0.3562633,-0.35335836,-0.3750754,-0.37683225,-0.3529206,-0.33857387,-0.33059284,-0.3298687,-0.3291923,-0.31351638,-0.29696113,-0.27628243,-0.28952426,-0.28629228,-0.26636243,-0.2606424,-0.24577418,-0.25367808,-0.25004658,-0.23989628,-0.23892449,-0.2539793,-0.26481804,-0.27396736,-0.25332347,-0.2506471,-0.24887016,-0.2517079,-0.23830031,-0.21093327,-0.22579435,-0.2613856,-0.29352206,-0.31228688,-0.3179608,-0.34664938,-0.3569396,-0.3752443,-0.38652918,-0.38764864,-0.37473923,-0.37921834,-0.3936401,-0.40030646,-0.38319072,-0.38522753,-0.39802033,-0.40142015,-0.40354288,-0.39873943,-0.39078218,-0.39376417,-0.40001222,-0.4045783,-0.38884923,-0.387694,-0.39333332,-0.406144,-0.41990864,-0.43248475,-0.45568866,-0.49914035,-0.53779984,-0.57514983,-0.606111,-0.5605885,-0.45970684,-0.31643897,-0.14667097,0.11425825,0.42760888,0.6467016,0.69702965,0.5222949,0.14779067,-0.26198885,-0.50996774,-0.57387334,-0.52257293,-0.4491506,-0.42375526,-0.4362831,-0.4504431,-0.44178194,-0.42672092,-0.42460433,-0.43467414,-0.4662052,-0.46474007,-0.4406996,-0.44198373,-0.45688066,-0.4560283,-0.44286475,-0.43999913,-0.44012824,-0.4394709,-0.4543369,-0.45256436,-0.4365935,-0.43222693,-0.43580437,-0.45101082,-0.43623576,-0.42927018,-0.4198285,-0.42825767,-0.43839467,-0.4430517,-0.43884456,-0.43082654,-0.43663922,-0.44700524,-0.44630536,-0.44417527,-0.4433636,-0.44103047,-0.4453209,-0.45372963,-0.43089253,-0.41727218,-0.42541197,-0.43665382,-0.43762648,-0.4188826,-0.4177472,-0.4199996,-0.4425469,-0.4395156,-0.43343613,-0.42335567,-0.42611396,-0.4407201,-0.4383901,-0.42468235,-0.42416683,-0.43558255,-0.43493542,-0.44554293,-0.4356598,-0.42386508,-0.4217348,-0.436723,-0.44286144,-0.43246093,-0.42918697,-0.4368504,-0.44756034,-0.4558683,-0.43884403,-0.45018744,-0.44889167,-0.4598851,-0.45947015,-0.44982287,-0.43448606,-0.43932596,-0.44501144,-0.44791475,-0.42144176,-0.41062602,-0.39184242,-0.38547218,-0.3718658,-0.36370987,-0.35396346,-0.34208977,-0.3437972,-0.3499364,-0.32540593,-0.32340547,-0.32420057,-0.3228637,-0.32641253,-0.32129055,-0.31280708,-0.31738672,-0.3197465,-0.3233645,-0.32379994,-0.3060235,-0.31580085,-0.31874245,-0.32555476,-0.30695355,-0.29948145,-0.29984307,-0.31333825,-0.30990252,-0.30072632,-0.2932967,-0.30276465,-0.31472948,-0.31538668,-0.32227728,-0.3105146,-0.3103724,-0.31812644,-0.3293766,-0.3281702,-0.31336594,-0.33068198,-0.3456327,-0.35431084,-0.32948628,-0.32166836,-0.32563436,-0.33457777,-0.34429702,-0.33263066,-0.33686227,-0.33598307,-0.35385397,-0.35792783,-0.3425433,-0.34659994,-0.34361532,-0.35944173,-0.35969833,-0.3502921,-0.3488856,-0.35448706,-0.36004618,-0.38084424,-0.34297517,-0.33564126,-0.32968917,-0.33281013,-0.3275805,-0.31373134,-0.30834776,-0.29636794,-0.294518,-0.28977814,-0.2788024,-0.27061692,-0.27077073,-0.27745214,-0.27659073,-0.26206326,-0.25554267,-0.24333544,-0.2574072,-0.26575297,-0.25805786,-0.26159328,-0.2583832,-0.2745136,-0.25607985,-0.25176334,-0.23676291,-0.21065573,-0.22416727,-0.26445383,-0.30070552,-0.29863906,-0.30384937,-0.34583756,-0.3636693,-0.36452955,-0.37774184,-0.38256148,-0.39674902,-0.3956362,-0.38633746,-0.38808733,-0.38706174,-0.40081346,-0.3976444,-0.3876002,-0.38409004,-0.38905752,-0.39904213,-0.4073122,-0.40675446,-0.39578256,-0.39781407,-0.42509362,-0.46544468,-0.4954549,-0.519337,-0.5530322,-0.6258482,-0.63279015,-0.5424628,-0.42201144,-0.33466262,-0.23390934,-0.060187776,0.20698456,0.47532275,0.64734864,0.71747893,0.60120636,0.26104727,-0.14984314,-0.46415365,-0.58160096,-0.5526724,-0.4689349,-0.44121313,-0.45327786,-0.46095052,-0.4616918,-0.43887398,-0.43640962,-0.45197067,-0.45601347,-0.4533716,-0.44011077,-0.4343461,-0.43486726,-0.44916812,-0.46111077,-0.4582629,-0.44948646,-0.43980247,-0.45387417,-0.45436224,-0.4401676,-0.4470008,-0.44285014,-0.4573343,-0.4594166,-0.44801337,-0.4488808,-0.44590548,-0.44966805,-0.4489104,-0.43442503,-0.43453056,-0.43891868,-0.44939914,-0.45478094,-0.4399547,-0.4448313,-0.4394721,-0.46501207,-0.46419498,-0.43645865,-0.44155088,-0.4456077,-0.4483536,-0.43478283,-0.43371224,-0.4285916,-0.43117085,-0.44180235,-0.4483951,-0.43654063,-0.43587822,-0.43004832,-0.44964692,-0.46475872,-0.45891646,-0.44290406,-0.44586098,-0.4571048,-0.45804894,-0.45364746,-0.4505903,-0.4581466,-0.46382987,-0.46847925,-0.47082773,-0.45185712,-0.45616087,-0.4769813,-0.49240014,-0.46577224,-0.450097,-0.45069125,-0.45808786,-0.46723634,-0.45107546,-0.4507403,-0.45200676,-0.44964376,-0.43613762,-0.42388794,-0.40629104,-0.3845868,-0.3730062,-0.38463417,-0.37521085,-0.37027588,-0.3587129,-0.35922247,-0.36236146,-0.34121847,-0.34988704,-0.34917557,-0.35099357,-0.36110914,-0.35331053,-0.3335241,-0.34297925,-0.34721464,-0.35633147,-0.33693534,-0.32460925,-0.32078636,-0.35072455,-0.35919598,-0.350967,-0.3481129,-0.35543,-0.35837388,-0.37300894,-0.35499826,-0.35917485,-0.36196685,-0.3777445,-0.37982213,-0.3732449,-0.3634312,-0.36909038,-0.37925985,-0.379799,-0.37115097,-0.36039245,-0.36745444,-0.3747001,-0.37116745,-0.3719756,-0.3675101,-0.37908816,-0.38419455,-0.39688075,-0.38311225,-0.383968,-0.38348228,-0.39711902,-0.3999274,-0.38428575,-0.38176388,-0.38683254,-0.39137682,-0.39403078,-0.3769849,-0.35754296,-0.3540609,-0.34818187,-0.35004815,-0.32273433,-0.3105065,-0.31095648,-0.30796555,-0.30851495,-0.30094483,-0.2768887,-0.27066934,-0.27594158,-0.28126565,-0.26379088,-0.27479792,-0.27783903,-0.29816833,-0.29074192,-0.28370705,-0.26161027,-0.2503574,-0.22918428,-0.2702666,-0.30630443,-0.3107601,-0.30902255,-0.3165746,-0.34218487,-0.35407043,-0.3640929,-0.3644348,-0.38864112,-0.4066584,-0.40397042,-0.40373167,-0.39733666,-0.420841,-0.4219256,-0.4157189,-0.40850255,-0.41432577,-0.4366395,-0.4372583,-0.42937624,-0.43010223,-0.43313256,-0.4409804,-0.44324908,-0.43085593,-0.42237172,-0.44338807,-0.47257322,-0.5188455,-0.5266959,-0.5727895,-0.63440317,-0.6118067,-0.5005918,-0.34914586,-0.15961106,0.11592599,0.42984435,0.64665306,0.67255694,0.3942757,-0.059715405,-0.43714947,-0.6050975,-0.60150117,-0.5478093,-0.5000098,-0.498047,-0.49550503,-0.48266885,-0.46185872,-0.45678142,-0.47118145,-0.4856434,-0.4831402,-0.4770335,-0.47378832,-0.48990244,-0.494023,-0.4888618,-0.47781116,-0.48490876,-0.48442912,-0.49215716,-0.48279056,-0.47930297,-0.4802468,-0.4894424,-0.50651574,-0.4930014,-0.48122764,-0.48259753,-0.48756686,-0.4919136,-0.48548108,-0.47903255,-0.48042887,-0.49297813,-0.5025171,-0.49314186,-0.48437983,-0.47492626,-0.48033196,-0.490455,-0.47773913,-0.45809263,-0.4756246,-0.4862718,-0.4948968,-0.48536032,-0.4794161,-0.476549,-0.47951207,-0.48962814,-0.46588108,-0.46295634,-0.46147254,-0.46923643,-0.48694938,-0.48173928,-0.4826419,-0.4887753,-0.49169302,-0.4971662,-0.48376176,-0.49816388,-0.49586377,-0.5085506,-0.5102905,-0.51031244,-0.5070313,-0.50778353,-0.5073508,-0.5208665,-0.52344406,-0.50830066,-0.5228356,-0.51991475,-0.5224637,-0.5175807,-0.48539189,-0.47556788,-0.47041786,-0.45576265,-0.4351481,-0.42388073,-0.41894913,-0.42024618,-0.41425374,-0.40470487,-0.3900743,-0.38716775,-0.3884623,-0.40232903,-0.38545725,-0.37335247,-0.37889224,-0.38138747,-0.39515918,-0.38421914,-0.3701887,-0.37041116,-0.37470847,-0.3919118,-0.3878355,-0.39497754,-0.3866765,-0.39018252,-0.3997454,-0.39160702,-0.37784117,-0.37782755,-0.39470187,-0.39922258,-0.3856685,-0.38877708,-0.3890893,-0.40988612,-0.41796356,-0.40012792,-0.3888685,-0.38693538,-0.40120378,-0.4031767,-0.4008829,-0.392114,-0.38189796,-0.4057081,-0.40795785,-0.4063162,-0.39811584,-0.40469944,-0.41366646,-0.42804193,-0.41692758,-0.4155326,-0.407435,-0.417798,-0.43246403,-0.41506124,-0.40657896,-0.40446258,-0.3890313,-0.39529803,-0.36887535,-0.3583228,-0.3417838,-0.35030827,-0.34503084,-0.33085394,-0.32915914,-0.30918437,-0.31191722,-0.31846896,-0.3039896,-0.2903843,-0.2901391,-0.29502025,-0.31213656,-0.31391522,-0.30382732,-0.2987932,-0.30977723,-0.31510645,-0.29412773,-0.27777869,-0.26806048,-0.25443727,-0.2692026,-0.28283376,-0.30188695,-0.3252165,-0.34356773,-0.36773223,-0.37225375,-0.3851375,-0.39016372,-0.40862846,-0.4217366,-0.41536045,-0.41372374,-0.4199592,-0.42789453,-0.44444668,-0.4283936,-0.4308307,-0.43825927,-0.43556455,-0.45390928,-0.44461688,-0.43501022,-0.42448702,-0.4341625,-0.4369922,-0.4356799,-0.4399147,-0.47840688,-0.51901793,-0.5573555,-0.5976819,-0.60324425,-0.5237278,-0.3859281,-0.19931285,0.063974,0.39972636,0.68076456,0.7863073,0.62176967,0.20908062,-0.23747309,-0.49020424,-0.5840859,-0.5520267,-0.50257266,-0.45686686,-0.4638344,-0.4643196,-0.47216353,-0.46474048,-0.459985,-0.46230626,-0.4812155,-0.48128122,-0.46794403,-0.46094513,-0.4639639,-0.46503168,-0.47121155,-0.467001,-0.4658701,-0.45999473,-0.47082487,-0.47730467,-0.46105054,-0.44555435,-0.44181183,-0.46023494,-0.4646851,-0.45570004,-0.44883046,-0.45051357,-0.4547167,-0.47215378,-0.46502438,-0.4600385,-0.45261332,-0.45416647,-0.4652902,-0.4486932,-0.44551817,-0.44387144,-0.44712988,-0.45228037,-0.444865,-0.44212246,-0.44266683,-0.45967877,-0.4586921,-0.44516852,-0.4388107,-0.4441345,-0.44108757,-0.44396773,-0.42915675,-0.42981955,-0.43663177,-0.4390279,-0.45101652,-0.44126508,-0.44021234,-0.44926056,-0.4683927,-0.4768286,-0.46850148,-0.46504962,-0.48030472,-0.48223525,-0.48952192,-0.48127127,-0.4663221,-0.46339276,-0.47236615,-0.4697366,-0.4630528,-0.45634907,-0.45229906,-0.4510458,-0.4438306,-0.42552385,-0.3997825,-0.3830426,-0.37902403,-0.36067083,-0.3410445,-0.32303628,-0.31592637,-0.3188344,-0.3270952,-0.3084299,-0.2960787,-0.29106033,-0.29487202,-0.30556384,-0.30443975,-0.28821236,-0.2806759,-0.29251835,-0.29203287,-0.28215432,-0.26723585,-0.27147406,-0.28242448,-0.2919194,-0.27935123,-0.29003653,-0.28872997,-0.296609,-0.30222258,-0.2864102,-0.28531682,-0.28435475,-0.29521737,-0.30422407,-0.2899666,-0.2819523,-0.27879637,-0.3077986,-0.30955777,-0.29454094,-0.28929868,-0.2966062,-0.3117911,-0.3171827,-0.31134763,-0.3135742,-0.30806562,-0.32108107,-0.32892853,-0.32374585,-0.31314042,-0.31932142,-0.32456055,-0.32547495,-0.3220643,-0.31002888,-0.311271,-0.30790243,-0.31488767,-0.31028306,-0.27758092,-0.26854092,-0.2622833,-0.26338065,-0.2577738,-0.23964386,-0.23432003,-0.23958258,-0.24616882,-0.23044331,-0.20446074,-0.19487745,-0.20114385,-0.20722874,-0.19296025,-0.19808415,-0.20741396,-0.21960123,-0.2077845,-0.19730121,-0.19300583,-0.17839488,-0.16043417,-0.16864061,-0.21032703,-0.22818124,-0.2481328,-0.27569202,-0.28726068,-0.30529383,-0.31312725,-0.31851843,-0.33103427,-0.34296265,-0.32617453,-0.32293692,-0.32148257,-0.3458181,-0.34724063,-0.34013236,-0.33461076,-0.33157927,-0.33785132,-0.34325066,-0.347674,-0.3350785,-0.33259195,-0.34514847,-0.35545465,-0.33500138,-0.3262656,-0.33419704,-0.3411205,-0.36279464,-0.40141553,-0.4241042,-0.44874454,-0.50735307,-0.5595694,-0.5440836,-0.4401704,-0.29566583,-0.14439495,0.08239282,0.41097975,0.677504,0.7930548,0.7244472,0.4269624,0.022350308,-0.31643912,-0.49925235,-0.5141339,-0.44710758,-0.3954267,-0.3820454,-0.37555692,-0.39190724,-0.39344543,-0.38655853,-0.38036314,-0.38748953,-0.39201832,-0.4026526,-0.38762438,-0.38938415,-0.3850522,-0.39168307,-0.4023401,-0.38672417,-0.38262647,-0.37852594,-0.38206026,-0.38143387,-0.37773415,-0.37198132,-0.3695319,-0.38251004,-0.38444006,-0.3898441,-0.36975494,-0.38549507,-0.39244822,-0.40260735,-0.38721508,-0.39259917,-0.3808649,-0.38946515,-0.39644548,-0.39782763,-0.3846173,-0.38623822,-0.3926454,-0.40251404,-0.3861088,-0.3834944,-0.37741205,-0.37555262,-0.38964483,-0.37339574,-0.36028084,-0.3670611,-0.38044837,-0.37831908,-0.37568286,-0.36904633,-0.37042084,-0.38282397,-0.39315128,-0.38026673,-0.376431,-0.38137925,-0.38433218,-0.39423415,-0.3755816,-0.38638043,-0.37868133,-0.40029168,-0.39731175,-0.39729372,-0.3849557,-0.38603407,-0.38859037,-0.4024063,-0.38720518,-0.39288414,-0.38017756,-0.3950911,-0.39208847,-0.384362,-0.37031946,-0.36120588,-0.34899846,-0.3414551,-0.33361548,-0.32224396,-0.30767024,-0.3106902,-0.31551462,-0.29129168,-0.28024465,-0.2688416,-0.28478715,-0.284131,-0.27639815,-0.26810303,-0.2683225,-0.27497196,-0.28762758,-0.28494442,-0.26981315,-0.27393922,-0.28427,-0.28531832,-0.28376302,-0.27572224,-0.28214487,-0.2907039,-0.29533017,-0.29200926,-0.28018624,-0.28392342,-0.2901024,-0.30140242,-0.29476765,-0.2794781,-0.2847463,-0.29278517,-0.30576164,-0.30744106,-0.28038132,-0.28058353,-0.29371774,-0.31151897,-0.3007438,-0.30127007,-0.29836234,-0.3112064,-0.31819746,-0.306912,-0.30732307,-0.31085196,-0.3146788,-0.32408595,-0.30456355,-0.3070899,-0.30560964,-0.34067485,-0.33696458,-0.34573808,-0.31505647,-0.30035695,-0.2982072,-0.30493513,-0.2893801,-0.2637915,-0.28784612,-0.2767158,-0.27286726,-0.26263016,-0.2548421,-0.24462941,-0.2499872,-0.25028265,-0.2450503,-0.21478406,-0.21035215,-0.20788176,-0.1969728,-0.19617611,-0.19125207,-0.19637455,-0.21186776,-0.21643804,-0.20540708,-0.20914115,-0.20591111,-0.20895101,-0.18596713,-0.17372945,-0.18085879,-0.22141193,-0.25948942,-0.2675566,-0.28393748,-0.28578094,-0.30911306,-0.33558017,-0.34472418,-0.33605042,-0.32608712,-0.32470915,-0.3389292,-0.35135734,-0.33785263,-0.32872698,-0.3336063,-0.34124526,-0.35450646,-0.34810594,-0.3393349,-0.33316082,-0.34199822,-0.35916546,-0.34450707,-0.34200892,-0.34593263,-0.35890168,-0.41646507,-0.4476544,-0.44193193,-0.4380168,-0.49330106,-0.5712562,-0.59686387,-0.5685666,-0.48230463,-0.3745673,-0.2336537,-0.021287562,0.2989494,0.60149133,0.7510885,0.69361526,0.41641784,-0.00421703,-0.37329587,-0.5296483,-0.51657915,-0.4438548,-0.3900923,-0.3845863,-0.3984796,-0.40630665,-0.39282012,-0.38381407,-0.3884061,-0.39703253,-0.41895556,-0.39695182,-0.38942567,-0.38674334,-0.3968161,-0.39850488,-0.40167177,-0.37642938,-0.36832398,-0.3763599,-0.39648744,-0.38858452,-0.36538577,-0.3763807,-0.37755623,-0.38992563,-0.3889975,-0.3805544,-0.38731065,-0.39544785,-0.4009467,-0.3937065,-0.37098473,-0.37081197,-0.37363556,-0.38210586,-0.37521112,-0.36742863,-0.35989186,-0.36606893,-0.37325045,-0.36232856,-0.35906318,-0.36731374,-0.37227067,-0.38971362,-0.38249853,-0.3771956,-0.37709275,-0.37459338,-0.38669932,-0.37954602,-0.36487573,-0.36594152,-0.37700197,-0.38966858,-0.38092968,-0.37109846,-0.3758977,-0.38862154,-0.39449883,-0.38025755,-0.369032,-0.36360082,-0.38773444,-0.39914748,-0.39939,-0.39298123,-0.39670753,-0.39787236,-0.4079713,-0.39897373,-0.39628246,-0.38615075,-0.39922473,-0.39859906,-0.39385372,-0.3679284,-0.36923087,-0.37309024,-0.37967855,-0.36581388,-0.34636486,-0.34253272,-0.32096192,-0.33019617,-0.31153506,-0.2881239,-0.27947965,-0.28267398,-0.29185978,-0.28606218,-0.276074,-0.27184847,-0.2898405,-0.29601297,-0.2908414,-0.28428566,-0.281452,-0.28894264,-0.29527646,-0.29731074,-0.29325834,-0.28136325,-0.28833503,-0.29361564,-0.3029157,-0.27957106,-0.28604448,-0.29957184,-0.31381688,-0.30525425,-0.287077,-0.2878274,-0.2970752,-0.3072932,-0.3030561,-0.30694255,-0.30266958,-0.30915233,-0.32618546,-0.31466568,-0.3097798,-0.30643964,-0.32198665,-0.333878,-0.3285692,-0.3190159,-0.31330636,-0.33062828,-0.34372693,-0.32227653,-0.31357065,-0.3223394,-0.33148366,-0.34496203,-0.3344808,-0.3196905,-0.32427412,-0.33006716,-0.34601146,-0.32470325,-0.31621242,-0.32770154,-0.32803506,-0.3308444,-0.31903198,-0.30292177,-0.29632962,-0.29805312,-0.3096417,-0.29697022,-0.26753357,-0.26851836,-0.27563447,-0.27776453,-0.2590791,-0.23779833,-0.22759703,-0.22717929,-0.22331932,-0.22673796,-0.2209459,-0.22350286,-0.2349728,-0.23844628,-0.2177763,-0.20402306,-0.19501969,-0.20011602,-0.22663534,-0.26439926,-0.27392325,-0.2966052,-0.31878963,-0.3396168,-0.35053888,-0.35176358,-0.3664606,-0.38465145,-0.37870967,-0.37337208,-0.36654338,-0.3643606,-0.37965402,-0.39544952,-0.3763131,-0.35744563,-0.36098248,-0.3851883,-0.38330096,-0.37944028,-0.36565,-0.36132976,-0.38630253,-0.4045824,-0.4106667,-0.4402355,-0.47348782,-0.4915016,-0.48856342,-0.49286333,-0.51863533,-0.5898918,-0.6070567,-0.55158967,-0.4007883,-0.23455864,-0.020850742,0.271679,0.5935246,0.7991764,0.8000053,0.5216147,0.03772797,-0.34767,-0.53432584,-0.55526364,-0.49590954,-0.46292743,-0.46202022,-0.443434,-0.43301117,-0.4361464,-0.43931037,-0.45659146,-0.44464278,-0.43323082,-0.41679037,-0.43779212,-0.43431193,-0.4380442,-0.43685976,-0.43534586,-0.4418915,-0.4390734,-0.4393226,-0.43091783,-0.43011445,-0.4300038,-0.43584532,-0.4325124,-0.43211558,-0.43608376,-0.451646,-0.4584341,-0.454743,-0.43732324,-0.44133967,-0.438893,-0.4490966,-0.4584958,-0.44284073,-0.42624763,-0.42910153,-0.44276243,-0.442889,-0.43529886,-0.42673135,-0.4301485,-0.43454775,-0.44645262,-0.4399306,-0.41995788,-0.42053384,-0.43251753,-0.43956742,-0.4308259,-0.43331432,-0.44924966,-0.45673424,-0.45737854,-0.44717294,-0.45264283,-0.45528427,-0.4613401,-0.45562428,-0.446991,-0.44649667,-0.4629978,-0.46506697,-0.46609145,-0.4605554,-0.46816087,-0.47795522,-0.49132532,-0.49160436,-0.48608986,-0.49128404,-0.4987946,-0.511982,-0.51488966,-0.49791923,-0.48799428,-0.49078333,-0.48947823,-0.46840444,-0.44128552,-0.43307102,-0.42493516,-0.42124465,-0.3924823,-0.37203282,-0.34817564,-0.36549658,-0.36356822,-0.35613945,-0.33379444,-0.3295763,-0.33914346,-0.33943582,-0.33457088,-0.3303699,-0.32573053,-0.33407345,-0.34146535,-0.3343389,-0.32273418,-0.32323185,-0.34292772,-0.3340392,-0.31980345,-0.31404826,-0.32202485,-0.32742992,-0.33896253,-0.33300424,-0.32906672,-0.33072582,-0.32974055,-0.34878403,-0.3522387,-0.33986115,-0.35085768,-0.35693923,-0.34618792,-0.34081265,-0.33420378,-0.3286693,-0.34010062,-0.35104504,-0.3464742,-0.3356465,-0.33849812,-0.3537688,-0.34949017,-0.3424066,-0.3397551,-0.33985397,-0.3453626,-0.36132437,-0.35651067,-0.3434419,-0.3388467,-0.35001722,-0.36210912,-0.3710038,-0.35232598,-0.34612623,-0.3535894,-0.3612233,-0.34787804,-0.33915347,-0.33355302,-0.34120768,-0.35455456,-0.33880258,-0.3383048,-0.3329454,-0.32518503,-0.328991,-0.32568464,-0.31460747,-0.30142626,-0.30760345,-0.30200642,-0.28831315,-0.25341296,-0.25458455,-0.25396234,-0.24938022,-0.22471118,-0.21194538,-0.20808022,-0.21798232,-0.23209809,-0.22560419,-0.21885006,-0.21762565,-0.23411918,-0.23581946,-0.23263948,-0.22812283,-0.21588957,-0.21257843,-0.21431844,-0.19481952,-0.21748413,-0.24416329,-0.27023757,-0.27622968,-0.2886125,-0.2892947,-0.29699618,-0.3117918,-0.33550107,-0.3363441,-0.34100893,-0.34257978,-0.3426443,-0.34930238,-0.35939112,-0.3536833,-0.3526194,-0.35690612,-0.36967516,-0.36204594,-0.3605711,-0.35241482,-0.362492,-0.37318355,-0.37004775,-0.35217163,-0.3531311,-0.35698918,-0.38970375,-0.42000878,-0.45050555,-0.4726787,-0.50836605,-0.56361413,-0.54334575,-0.4214275,-0.25838518,-0.093784384,0.1556934,0.49895605,0.7513859,0.83934706,0.71855414,0.35321537,-0.09288149,-0.39164925,-0.50343573,-0.50918216,-0.46258345,-0.4120121,-0.38260356,-0.39035136,-0.3940479,-0.4071147,-0.40143937,-0.40133563,-0.39155918,-0.40354663,-0.4112028,-0.40657824,-0.39539072,-0.39883968,-0.41352844,-0.41564414,-0.40388006,-0.38817635,-0.38696575,-0.3975365,-0.40862757,-0.41266522,-0.39949363,-0.40504277,-0.40377814,-0.4205576,-0.41390005,-0.39075878,-0.39422536,-0.3910914,-0.4005419,-0.39737538,-0.38189754,-0.39045316,-0.40179977,-0.4093846,-0.40089846,-0.39358234,-0.39882377,-0.3977777,-0.41231582,-0.39831927,-0.39658716,-0.38294342,-0.3972018,-0.414243,-0.40583926,-0.38365865,-0.38326505,-0.38604325,-0.3949906,-0.38569248,-0.37630692,-0.37778935,-0.3864151,-0.3945049,-0.39507586,-0.379845,-0.38075763,-0.39643714,-0.40524486,-0.41124249,-0.39129287,-0.3971385,-0.41457015,-0.41437677,-0.40765247,-0.40263882,-0.3917001,-0.40780073,-0.42205748,-0.40694937,-0.40234953,-0.3989492,-0.41004878,-0.42072347,-0.407242,-0.38782334,-0.37409112,-0.37236726,-0.37003416,-0.34342793,-0.32094443,-0.3084699,-0.31816256,-0.32976556,-0.29624367,-0.28917322,-0.29067218,-0.28063285,-0.28541636,-0.2734711,-0.26315916,-0.26937968,-0.2616541,-0.2638768,-0.25718403,-0.24226227,-0.24367617,-0.24524084,-0.25821364,-0.26214302,-0.25300974,-0.25628585,-0.25829288,-0.268837,-0.27097425,-0.2513788,-0.25416562,-0.26296997,-0.26327285,-0.2659502,-0.24897984,-0.25483268,-0.26295498,-0.26189116,-0.26366493,-0.2564949,-0.25466287,-0.25973982,-0.27310878,-0.27765173,-0.26527596,-0.26219386,-0.27576584,-0.2852275,-0.28410742,-0.27127445,-0.26558697,-0.27926505,-0.29015154,-0.2824852,-0.27676696,-0.28103915,-0.2837093,-0.2862603,-0.28111255,-0.2715468,-0.26278552,-0.28005973,-0.29165685,-0.29185078,-0.26590624,-0.26211172,-0.27619797,-0.2902711,-0.28921518,-0.27601844,-0.27108288,-0.2788761,-0.28537595,-0.26474592,-0.2418455,-0.23665594,-0.24694945,-0.2598044,-0.24848606,-0.2237833,-0.21639375,-0.21790086,-0.21700925,-0.20768851,-0.18529624,-0.1709194,-0.16752714,-0.1819284,-0.15844467,-0.1394814,-0.15093637,-0.17379229,-0.17253192,-0.18514994,-0.16554582,-0.16360086,-0.16931693,-0.182573,-0.16321002,-0.14699662,-0.1323365,-0.15446253,-0.20680426,-0.23022562,-0.22021605,-0.22744502,-0.24878928,-0.27647197,-0.2881209,-0.29063296,-0.28252462,-0.2841783,-0.30273926,-0.30321467,-0.2966178,-0.29779136,-0.30655244,-0.32614875,-0.32121915,-0.31131062,-0.30912387,-0.3126215,-0.3330824,-0.31482244,-0.30613616,-0.31187963,-0.31641087,-0.32737532,-0.34427935,-0.3643199,-0.41028383,-0.42928627,-0.4509018,-0.4978049,-0.544405,-0.54739624,-0.5119027,-0.44904944,-0.32314014,-0.17717482,0.00889663,0.26743793,0.5554137,0.79172426,0.8710676,0.7454704,0.40662473,-0.005088298,-0.2983536,-0.4436549,-0.4911424,-0.47731254,-0.4280565,-0.36942276,-0.34968716,-0.35733595,-0.35746866,-0.36296064,-0.35122582,-0.338475,-0.3337007,-0.35009593,-0.3655283,-0.3552942,-0.34873787,-0.35428426,-0.36758885,-0.36828172,-0.37106293,-0.35377452,-0.36019135,-0.35447845,-0.3573319,-0.36533183,-0.3503169,-0.34674484,-0.357508,-0.3734979,-0.35066903,-0.338249,-0.3373914,-0.3469659,-0.35912663,-0.3627625,-0.3426988,-0.3357259,-0.34369287,-0.35979587,-0.3658927,-0.3539549,-0.36077663,-0.35773018,-0.36481068,-0.36306313,-0.34205088,-0.3426357,-0.35586405,-0.35203597,-0.34414724,-0.33066043,-0.3235632,-0.33065864,-0.3400742,-0.3316165,-0.33094156,-0.32510123,-0.32712406,-0.3439398,-0.34024665,-0.3349197,-0.32475445,-0.33035776,-0.34027648,-0.33112606,-0.33554828,-0.34438616,-0.35045728,-0.3602492,-0.35930166,-0.34758338,-0.35505885,-0.36704862,-0.37479421,-0.37170845,-0.34774762,-0.35567063,-0.35792184,-0.36279395,-0.35126862,-0.33858845,-0.33052915,-0.3426806,-0.33505654,-0.3245489,-0.30733424,-0.3081394,-0.31109086,-0.3074121,-0.28844112,-0.27393785,-0.25832665,-0.25824064,-0.26730123,-0.257995,-0.23387325,-0.23592483,-0.2474611,-0.2589026,-0.25204456,-0.23796983,-0.2310332,-0.23435739,-0.24616048,-0.23445693,-0.229643,-0.23625708,-0.23913988,-0.24637002,-0.23972328,-0.22681749,-0.23296706,-0.24724133,-0.25001872,-0.25533202,-0.24259338,-0.24599887,-0.2623843,-0.27218124,-0.26574838,-0.25439268,-0.24443989,-0.27245578,-0.27000394,-0.27138856,-0.25882775,-0.2564733,-0.27200252,-0.27210125,-0.27212268,-0.26261,-0.26088572,-0.27082697,-0.28811282,-0.27311203,-0.26827243,-0.2839499,-0.2874417,-0.3069456,-0.2874349,-0.2865271,-0.28299153,-0.29256955,-0.30889004,-0.30338466,-0.296622,-0.2911044,-0.3073703,-0.31739527,-0.31036764,-0.29990062,-0.28887635,-0.300914,-0.29702437,-0.29924786,-0.28655392,-0.27095416,-0.28672475,-0.27593768,-0.27035767,-0.25022945,-0.233479,-0.24912378,-0.23801695,-0.22591771,-0.21602206,-0.21499987,-0.21911755,-0.21467209,-0.20524581,-0.18247351,-0.16920982,-0.1753879,-0.17432189,-0.17508963,-0.16156025,-0.17746416,-0.19398524,-0.20731296,-0.18734147,-0.1665806,-0.16849439,-0.18033257,-0.19468352,-0.16883735,-0.14545359,-0.13687995,-0.18886524,-0.22869197,-0.2372763,-0.23974992,-0.25339147,-0.29092708,-0.31117913,-0.31495672,-0.3025898,-0.30342886,-0.30959877,-0.31150085,-0.313367,-0.31158277,-0.31644115,-0.327527,-0.3428509,-0.3257556,-0.325781,-0.33010998,-0.33641097,-0.34711984,-0.33487052,-0.34010896,-0.32506236,-0.3438758,-0.351146,-0.35777614,-0.37797078,-0.41806194,-0.45085794,-0.48490584,-0.5145621,-0.52477324,-0.46716657,-0.36301842,-0.23178548,-0.03088588,0.2567484,0.57848763,0.76594806,0.76876986,0.57000315,0.16286185,-0.23521334,-0.47671232,-0.54649323,-0.5195001,-0.44650716,-0.39552858,-0.38328126,-0.40078342,-0.4040822,-0.38100973,-0.38394222,-0.38950855,-0.38431293,-0.37635607,-0.3672258,-0.38549012,-0.3965823,-0.4043061,-0.39679858,-0.380732,-0.37589067,-0.39338958,-0.40590438,-0.39630798,-0.39605638,-0.38705996,-0.39789107,-0.40660563,-0.39249682,-0.38450187,-0.38124993,-0.38876945,-0.390186,-0.39064193,-0.38464224,-0.3752386,-0.3875123,-0.39458346,-0.39128813,-0.37148586,-0.36693373,-0.37771106,-0.39794785,-0.3815326,-0.3729802,-0.3673491,-0.3866296,-0.3871743,-0.39719933,-0.38868725,-0.37480238,-0.38250703,-0.3779995,-0.37245333,-0.3573199,-0.36418727,-0.3839854,-0.38159096,-0.36236617,-0.3643939,-0.3541582,-0.36475945,-0.3662169,-0.3774975,-0.37029973,-0.3774023,-0.38209802,-0.39950722,-0.38324392,-0.3706064,-0.37652883,-0.39608964,-0.40915552,-0.3936408,-0.38038948,-0.38343978,-0.39158502,-0.41519132,-0.3984444,-0.3983216,-0.3962878,-0.41243812,-0.4099232,-0.40284902,-0.3926925,-0.3746973,-0.37246197,-0.37151068,-0.36507696,-0.34514704,-0.3319767,-0.33745822,-0.34324756,-0.32823056,-0.30379465,-0.29947788,-0.3047944,-0.30383223,-0.29022884,-0.2816216,-0.27945295,-0.28902784,-0.29164374,-0.29161525,-0.26823604,-0.27170286,-0.2774144,-0.2882388,-0.27817342,-0.28373143,-0.2848971,-0.28133205,-0.29018468,-0.28854093,-0.28347763,-0.2896615,-0.29824352,-0.30915368,-0.30911756,-0.28541315,-0.29599357,-0.31558758,-0.32449502,-0.318709,-0.32192722,-0.30471888,-0.3242555,-0.32949492,-0.32321942,-0.31386957,-0.3151897,-0.3157652,-0.33153614,-0.3354382,-0.33448824,-0.3386987,-0.345381,-0.34882924,-0.33640766,-0.33382863,-0.3203394,-0.33521712,-0.34405172,-0.35016534,-0.34782496,-0.34036446,-0.3529686,-0.35818648,-0.3625052,-0.35064018,-0.34354317,-0.3549237,-0.36006486,-0.3494881,-0.33261988,-0.32948017,-0.33098465,-0.34570968,-0.33336616,-0.32334203,-0.32601348,-0.31958365,-0.31460273,-0.30524725,-0.28263965,-0.2657398,-0.2826901,-0.29294133,-0.2792028,-0.2481441,-0.2380264,-0.2414973,-0.23037091,-0.22260068,-0.22986455,-0.22502911,-0.23573574,-0.24291502,-0.2345738,-0.2303803,-0.21942705,-0.22535753,-0.24516664,-0.27826643,-0.27729893,-0.29926008,-0.33361796,-0.34789503,-0.34769967,-0.36215618,-0.36840105,-0.3721063,-0.37095395,-0.3710038,-0.374475,-0.36374745,-0.36811933,-0.3956971,-0.3910892,-0.36851585,-0.37138838,-0.39504257,-0.4046904,-0.39877522,-0.4011267,-0.39574823,-0.39450637,-0.3911698,-0.4025545,-0.39653462,-0.42608508,-0.4664158,-0.49191976,-0.51829433,-0.56669706,-0.54260814,-0.44509134,-0.28878328,-0.061676364,0.24127339,0.57224333,0.79022646,0.80528134,0.5581799,0.120367505,-0.29790443,-0.53407,-0.5901141,-0.5441418,-0.47579148,-0.42760062,-0.4433365,-0.45699847,-0.449214,-0.43719527,-0.44578347,-0.44698632,-0.45054564,-0.45428905,-0.44865108,-0.44758177,-0.44332328,-0.4469378,-0.4514489,-0.45438382,-0.4437439,-0.46009597,-0.45934102,-0.46964067,-0.46321917,-0.4633788,-0.4652722,-0.4717641,-0.47237498,-0.4578139,-0.45764145,-0.46156016,-0.45873815,-0.46966714,-0.44616196,-0.43902647,-0.45767215,-0.46929267,-0.4707952,-0.46711728,-0.46397206,-0.47953668,-0.48479033,-0.4753921,-0.45376775,-0.45670044,-0.46115002,-0.45953485,-0.45898467,-0.45124763,-0.44962984,-0.45956624,-0.46477136,-0.45773244,-0.44992346,-0.43931928,-0.45442685,-0.4541474,-0.44815525,-0.44147643,-0.44278434,-0.46057808,-0.48094007,-0.46847102,-0.45771918,-0.46828178,-0.47056472,-0.48255903,-0.48850936,-0.4717003,-0.4738012,-0.47612217,-0.50337315,-0.49926287,-0.48563597,-0.48767772,-0.50630736,-0.5175797,-0.51090664,-0.49649623,-0.48743787,-0.5007825,-0.49869654,-0.4906409,-0.47212046,-0.45725155,-0.4440336,-0.44122463,-0.42440182,-0.38619563,-0.36382392,-0.36822557,-0.36947605,-0.3537793,-0.33809233,-0.32801756,-0.33096027,-0.34261963,-0.34778908,-0.33538148,-0.33192506,-0.32906926,-0.3371619,-0.3376231,-0.32011104,-0.31376952,-0.32023144,-0.3327139,-0.33816272,-0.324035,-0.33663034,-0.31602377,-0.32635468,-0.3209865,-0.311445,-0.30626342,-0.31731486,-0.32983816,-0.32863432,-0.323968,-0.3223024,-0.33614248,-0.3497303,-0.34259045,-0.33689463,-0.34062272,-0.3533579,-0.36158314,-0.3552246,-0.33444402,-0.33244175,-0.34101397,-0.34466228,-0.3442411,-0.3355869,-0.3359626,-0.3371956,-0.34081578,-0.35144833,-0.33627814,-0.34586674,-0.34429848,-0.3635735,-0.3596631,-0.3405822,-0.3327396,-0.3376083,-0.34318197,-0.34813315,-0.33208677,-0.33030668,-0.34230202,-0.3479686,-0.33718383,-0.33143222,-0.30426723,-0.30461955,-0.31314498,-0.28555775,-0.26573873,-0.2578169,-0.257913,-0.2562408,-0.25143915,-0.23714857,-0.21322727,-0.22662687,-0.22027218,-0.21075034,-0.20114525,-0.19998443,-0.21712343,-0.23026143,-0.22486357,-0.19688128,-0.20640302,-0.20199223,-0.17935051,-0.17517248,-0.2052043,-0.24169256,-0.25952724,-0.28552607,-0.30074266,-0.30676022,-0.3219842,-0.33930734,-0.34612277,-0.34165338,-0.32796016,-0.33097968,-0.3416758,-0.3388923,-0.3476354,-0.3248089,-0.33090273,-0.33588892,-0.34824082,-0.35066074,-0.33459106,-0.3387463,-0.3502737,-0.35292554,-0.34468535,-0.33956328,-0.34307966,-0.3778301,-0.42625684,-0.46534884,-0.47179595,-0.5155672,-0.52302206,-0.44757542,-0.2810617,-0.088945344,0.1814718,0.51464933,0.78425235,0.85991746,0.68789905,0.21736325,-0.26124123,-0.49607235,-0.50118697,-0.41334692,-0.37356666,-0.36995575,-0.39858383,-0.39521632,-0.37248844,-0.36250436,-0.3843499,-0.39242902,-0.39722314,-0.37559474,-0.37330404,-0.37538156,-0.3872241,-0.38717595,-0.3706711,-0.36909133,-0.37239167,-0.3828107,-0.38301536,-0.37923303,-0.3777103,-0.3845553,-0.38194576,-0.38873205,-0.37176955,-0.37348065,-0.37634507,-0.3841857,-0.3774877,-0.35734665,-0.35136476,-0.36580157,-0.36482257,-0.37116286,-0.35425082,-0.35303956,-0.36876014,-0.37842283,-0.38017938,-0.3518827,-0.36133114,-0.36197862,-0.37086907,-0.37369162,-0.35224777,-0.33943793,-0.34986278,-0.3621873,-0.3709108,-0.35413146,-0.35984033,-0.36770707,-0.37440294,-0.37215883,-0.3454642,-0.34262952,-0.35128152,-0.3649149,-0.35721135,-0.3527514,-0.34802535,-0.37053978,-0.38435936,-0.3785082,-0.3686054,-0.36736137,-0.38491005,-0.39039743,-0.38752934,-0.3701809,-0.36357614,-0.3705104,-0.37548214,-0.36897013,-0.32850832,-0.31930086,-0.30172095,-0.29334727,-0.27762938,-0.2548741,-0.24477017,-0.24682786,-0.2587335,-0.25465414,-0.23752753,-0.23484278,-0.24325581,-0.2550545,-0.25951728,-0.23640536,-0.22540739,-0.22905572,-0.238554,-0.24996439,-0.22526033,-0.22993627,-0.2331527,-0.2451728,-0.24044354,-0.22444457,-0.22592902,-0.2331752,-0.23593771,-0.23500621,-0.22802235,-0.21615057,-0.23258416,-0.23860662,-0.24939905,-0.23104179,-0.23130345,-0.2455023,-0.2560043,-0.2525244,-0.24802963,-0.23919804,-0.26032004,-0.26668134,-0.24566872,-0.2454457,-0.24774364,-0.26081604,-0.26285952,-0.2540224,-0.25353715,-0.24440847,-0.25588435,-0.26915747,-0.25485376,-0.24930319,-0.2501977,-0.2590622,-0.272962,-0.28005219,-0.2652895,-0.26516527,-0.28623885,-0.2822013,-0.27191907,-0.25966865,-0.26489395,-0.2680067,-0.26779544,-0.26373094,-0.23884194,-0.2345063,-0.22195648,-0.21860182,-0.20991698,-0.17959896,-0.17870307,-0.17556469,-0.18073283,-0.16679972,-0.15012953,-0.15012597,-0.15069611,-0.16638608,-0.15994908,-0.14394672,-0.15667982,-0.16990092,-0.16954449,-0.16131252,-0.14854766,-0.14381912,-0.15021044,-0.14302082,-0.1295061,-0.117680274,-0.15651347,-0.18639895,-0.2064202,-0.21250828,-0.22963005,-0.24590383,-0.25856298,-0.28455493,-0.28557298,-0.2668679,-0.2652959,-0.27749205,-0.28949195,-0.29086,-0.28475514,-0.27770862,-0.2957884,-0.29797202,-0.2964655,-0.28602555,-0.28167847,-0.29192984,-0.3050962,-0.30441624,-0.312934,-0.36397564,-0.3984626,-0.4340302,-0.4713194,-0.44250926,-0.3523776,-0.21678336,-0.046307016,0.21369155,0.53070474,0.745857,0.7884996,0.5969445,0.19927664,-0.18149313,-0.3907143,-0.43249232,-0.39998832,-0.34272185,-0.3193204,-0.32080373,-0.32374495,-0.33322307,-0.3379685,-0.32220557,-0.3232476,-0.33107293,-0.35121107,-0.3367814,-0.31961673,-0.32724375,-0.33247024,-0.34954497,-0.34138033,-0.33055395,-0.33060753,-0.3375782,-0.3370367,-0.3296364,-0.32758164,-0.3299926,-0.34429651,-0.34938353,-0.3436677,-0.33142176,-0.3195466,-0.32954097,-0.3420476,-0.3334462,-0.32400268,-0.3213577,-0.34234345,-0.35095307,-0.34065726,-0.32857215,-0.32743993,-0.33987543,-0.34126267,-0.34134513,-0.32317317,-0.3339725,-0.3308639,-0.34623656,-0.332773,-0.32385817,-0.32849747,-0.33187246,-0.33726016,-0.32047886,-0.30872285,-0.30684438,-0.3262891,-0.33864912,-0.3265171,-0.3277235,-0.32757986,-0.33166838,-0.3470742,-0.35425153,-0.3334934,-0.3367659,-0.3416966,-0.35062733,-0.35435334,-0.33059514,-0.3345458,-0.33034715,-0.3426361,-0.3396794,-0.32746634,-0.33178368,-0.32419088,-0.33832595,-0.32343316,-0.2962177,-0.2886117,-0.28651634,-0.27649435,-0.2710298,-0.25925547,-0.24962424,-0.2723789,-0.2588927,-0.25249135,-0.23497531,-0.22588176,-0.22800855,-0.22814335,-0.2327016,-0.21616009,-0.20035957,-0.2191113,-0.22417578,-0.21919519,-0.2049737,-0.20944867,-0.21741918,-0.22092462,-0.23975709,-0.22204018,-0.21002962,-0.21902028,-0.22642323,-0.22114532,-0.21079814,-0.21652111,-0.22320493,-0.23753463,-0.21961534,-0.21442148,-0.21506073,-0.2243237,-0.23696664,-0.23929876,-0.226065,-0.22109857,-0.23269203,-0.23813576,-0.2429116,-0.22956876,-0.23157078,-0.24065152,-0.25250044,-0.24742103,-0.21941163,-0.2287818,-0.22948085,-0.23226573,-0.24019428,-0.22766718,-0.22822395,-0.239231,-0.24171403,-0.24207681,-0.23262562,-0.24001065,-0.24414864,-0.25789544,-0.2562857,-0.24619249,-0.24470048,-0.24952795,-0.25106072,-0.2546559,-0.24346632,-0.23572251,-0.23920006,-0.24003927,-0.23016499,-0.20529532,-0.18765463,-0.20572051,-0.19573201,-0.1835541,-0.17151597,-0.1561933,-0.15877266,-0.15548034,-0.15273568,-0.13070086,-0.112360686,-0.1271111,-0.13279748,-0.12986967,-0.118964575,-0.13264564,-0.13860676,-0.14360443,-0.13659415,-0.12557675,-0.13149309,-0.12535384,-0.12174395,-0.09989222,-0.10728203,-0.13492222,-0.1643423,-0.19031937,-0.2074233,-0.21580824,-0.22399426,-0.25305083,-0.26623523,-0.26379424,-0.25101545,-0.24660629,-0.25230682,-0.2669741,-0.28362852,-0.27047053,-0.26003385,-0.2739723,-0.28662524,-0.2812667,-0.26873723,-0.2605722,-0.2594047,-0.26291677,-0.2769085,-0.27711514,-0.31239593,-0.36374447,-0.39351708,-0.39353767,-0.42095792,-0.4772747,-0.51344264,-0.46106315,-0.33918086,-0.18253785,0.031131448,0.3210053,0.63731813,0.84068114,0.8644548,0.6106757,0.13455656,-0.28488734,-0.45819074,-0.41720843,-0.32951808,-0.31311598,-0.33060947,-0.3433923,-0.3126536,-0.30366,-0.3227391,-0.32861763,-0.33069175,-0.31436288,-0.31627372,-0.31342447,-0.31882536,-0.330343,-0.3178814,-0.31477976,-0.31000075,-0.30618688,-0.31668794,-0.2964673,-0.29548126,-0.30674037,-0.30384925,-0.31380704,-0.29865858,-0.3058747,-0.31507453,-0.316548,-0.30674115,-0.29736048,-0.31145856,-0.3103993,-0.3417684,-0.32212982,-0.324431,-0.32044122,-0.3165767,-0.3183491,-0.31393594,-0.3057195,-0.30568963,-0.30814478,-0.31354487,-0.3165521,-0.2911349,-0.29330212,-0.31784728,-0.31576076,-0.3104374,-0.2957953,-0.3074979,-0.3132558,-0.3266888,-0.3238327,-0.30358317,-0.31252337,-0.32242906,-0.33057398,-0.32616788,-0.3389951,-0.32531664,-0.33377656,-0.3264537,-0.33313072,-0.30937174,-0.31598684,-0.32202783,-0.347008,-0.340151,-0.33249876,-0.32785797,-0.33376378,-0.34682187,-0.3499731,-0.33315155,-0.31930238,-0.31595692,-0.30798224,-0.29368237,-0.26585197,-0.26217324,-0.2712249,-0.27442476,-0.27380505,-0.25141776,-0.24412596,-0.2360913,-0.23480503,-0.22186927,-0.19229005,-0.19732346,-0.21399012,-0.2166054,-0.2175223,-0.20639348,-0.22638197,-0.24357787,-0.24809529,-0.25178653,-0.22653699,-0.21798947,-0.23107825,-0.2388469,-0.23383008,-0.22488695,-0.23989165,-0.25080755,-0.25191438,-0.26709762,-0.25094306,-0.25519916,-0.24835084,-0.249308,-0.24634694,-0.22784509,-0.24267799,-0.241283,-0.25692493,-0.25877234,-0.24898939,-0.24962448,-0.2606856,-0.28136817,-0.2863764,-0.27888432,-0.27418274,-0.27556324,-0.29349175,-0.2959287,-0.27700454,-0.2746963,-0.28442374,-0.29053846,-0.28888157,-0.27838638,-0.27777132,-0.28936198,-0.29339686,-0.31277195,-0.29283607,-0.30099735,-0.29771337,-0.29870933,-0.30259913,-0.30334726,-0.2915139,-0.30312958,-0.31197923,-0.3044152,-0.28786168,-0.2842104,-0.29838836,-0.2897215,-0.2894713,-0.27806714,-0.2748074,-0.2741751,-0.26463112,-0.2554078,-0.24959114,-0.24321939,-0.23841447,-0.24194348,-0.24415962,-0.23155181,-0.21922563,-0.20386234,-0.20119539,-0.19390729,-0.1680735,-0.1687466,-0.18681633,-0.19038887,-0.20330618,-0.19269249,-0.18691845,-0.18301074,-0.18859443,-0.18255085,-0.162781,-0.15513757,-0.17069049,-0.2220714,-0.24240693,-0.2373082,-0.25893274,-0.28993905,-0.3138989,-0.31625834,-0.31320456,-0.32660997,-0.31917122,-0.33988315,-0.3392797,-0.3279218,-0.33433625,-0.34001637,-0.34500188,-0.34676042,-0.3489099,-0.336292,-0.3347332,-0.3430388,-0.3561093,-0.34233525,-0.33692235,-0.33770648,-0.3497489,-0.34944868,-0.33724004,-0.35747623,-0.41963172,-0.46451333,-0.4785895,-0.49695766,-0.5400699,-0.5425481,-0.44193518,-0.3015307,-0.10517548,0.169643,0.50555575,0.7630243,0.8844136,0.790705,0.40946808,-0.07341622,-0.40433043,-0.5114532,-0.49667323,-0.43806216,-0.4071019,-0.4078741,-0.4142391,-0.39116672,-0.38132736,-0.39915794,-0.41611207,-0.42427084,-0.40838543,-0.41881725,-0.42832032,-0.4260676,-0.42134017,-0.4110535,-0.40671936,-0.40814424,-0.41906238,-0.42172024,-0.40925032,-0.39903483,-0.4119409,-0.42842633,-0.42553982,-0.40407863,-0.4000111,-0.4201004,-0.42786223,-0.43067783,-0.4174365,-0.4147259,-0.4203258,-0.43653873,-0.44130978,-0.43147206,-0.42920196,-0.44865584,-0.45530185,-0.43579364,-0.4211776,-0.41545498,-0.43413797,-0.44387338,-0.433973,-0.4288202,-0.40905306,-0.42504123,-0.43025663,-0.42614627,-0.40575898,-0.4129204,-0.42012274,-0.43208838,-0.43228438,-0.41787305,-0.41450953,-0.41944534,-0.42126822,-0.42441466,-0.41340297,-0.41510084,-0.43370232,-0.43914402,-0.43886328,-0.4543154,-0.43672472,-0.4566154,-0.46499002,-0.4696088,-0.44990963,-0.46246302,-0.4567399,-0.47852004,-0.48199987,-0.47104487,-0.4663716,-0.47308293,-0.48429888,-0.4930202,-0.4609243,-0.44327053,-0.4512675,-0.43283784,-0.40723228,-0.4079459,-0.3786547,-0.37905988,-0.37935406,-0.3623328,-0.33991048,-0.32690603,-0.33284444,-0.33721495,-0.32755417,-0.3073826,-0.2980172,-0.29310665,-0.30444562,-0.30462074,-0.29277575,-0.29627714,-0.294266,-0.30845183,-0.31283852,-0.29708385,-0.30177513,-0.3113429,-0.31962785,-0.31073526,-0.3038991,-0.30238563,-0.3066733,-0.30950952,-0.3184964,-0.29984194,-0.2935914,-0.30999815,-0.3329173,-0.33017614,-0.312354,-0.3095276,-0.3154696,-0.33125392,-0.32659402,-0.3133143,-0.30905706,-0.32390356,-0.3392688,-0.34729403,-0.3251055,-0.33359274,-0.32669914,-0.3533125,-0.3390009,-0.32531095,-0.32830995,-0.32822156,-0.34162694,-0.3307353,-0.32926834,-0.31835523,-0.3402764,-0.33749193,-0.33612785,-0.3138464,-0.30969265,-0.32348177,-0.34407148,-0.338652,-0.32457253,-0.3102777,-0.33381534,-0.3397824,-0.34055388,-0.32191727,-0.31429434,-0.32212263,-0.3204623,-0.33171043,-0.3126658,-0.29563868,-0.3043464,-0.30476406,-0.30417618,-0.27803984,-0.27585933,-0.27228773,-0.27014667,-0.2736196,-0.25520253,-0.24137902,-0.23661712,-0.24849512,-0.23675348,-0.21777639,-0.20808224,-0.20225832,-0.21030949,-0.19610825,-0.18855049,-0.1872769,-0.18085468,-0.21316323,-0.21347898,-0.199832,-0.18227272,-0.18424284,-0.19185735,-0.19169195,-0.16453594,-0.1445189,-0.16642013,-0.22679043,-0.25187832,-0.26173252,-0.26198748,-0.27692792,-0.30171224,-0.30365312,-0.29897907,-0.30043176,-0.29633078,-0.3096314,-0.30411872,-0.30499703,-0.31195736,-0.31639874,-0.32726353,-0.33193532,-0.3129164,-0.32395357,-0.32982272,-0.34003472,-0.32411668,-0.31772885,-0.31323537,-0.33012164,-0.34190303,-0.35129008,-0.35466447,-0.39369226,-0.44167668,-0.45252696,-0.4476195,-0.47678828,-0.53132254,-0.5663215,-0.5662243,-0.5408028,-0.4859414,-0.3736756,-0.24671654,-0.100454815,0.13997824,0.49297655,0.7712058,0.923627,0.8548637,0.516183,0.037812512,-0.33558536,-0.49397084,-0.4982944,-0.4235508,-0.38067427,-0.3662872,-0.38223538,-0.38148826,-0.37467968,-0.35971764,-0.36416554,-0.36583027,-0.38117793,-0.3775477,-0.3746499,-0.37522364,-0.37484717,-0.38848856,-0.38989618,-0.3627486,-0.3635037,-0.374882,-0.38601503,-0.38215888,-0.36517125,-0.3620448,-0.37561828,-0.38677943,-0.3857095,-0.3694586,-0.3676832,-0.36358073,-0.37815845,-0.37774372,-0.37026098,-0.3590557,-0.36557677,-0.3654646,-0.37852997,-0.36702675,-0.36903954,-0.3702206,-0.38174388,-0.3865504,-0.3877291,-0.36177382,-0.37438294,-0.38014072,-0.37796298,-0.36172593,-0.36094907,-0.36280105,-0.3745652,-0.36497217,-0.34471652,-0.34509772,-0.35008544,-0.3613656,-0.36468104,-0.35319668,-0.34618694,-0.3574603,-0.3816961,-0.382912,-0.364691,-0.36834633,-0.37703907,-0.39291346,-0.37485418,-0.36656746,-0.3646962,-0.3780654,-0.38196203,-0.37463376,-0.37314525,-0.3645678,-0.37191692,-0.38788137,-0.36946303,-0.34480363,-0.33828527,-0.33330736,-0.33043173,-0.31908625,-0.30341437,-0.28921318,-0.28598177,-0.28506207,-0.28076822,-0.26217565,-0.25020006,-0.24118552,-0.25161225,-0.25282985,-0.23505768,-0.2316535,-0.23009852,-0.24612664,-0.2335063,-0.21884613,-0.20971687,-0.22466704,-0.22889917,-0.22644667,-0.22857103,-0.22318353,-0.2272771,-0.24570529,-0.24130492,-0.23396705,-0.22550084,-0.23418175,-0.24639669,-0.24409978,-0.24169827,-0.22730929,-0.23073237,-0.24419469,-0.23995249,-0.2372081,-0.23448312,-0.22714642,-0.24632767,-0.24072877,-0.23387747,-0.23860314,-0.2502875,-0.26036367,-0.25894347,-0.24879041,-0.24058056,-0.25294936,-0.2631055,-0.26167253,-0.26412076,-0.2506286,-0.26023895,-0.27676407,-0.28833684,-0.2701522,-0.26023328,-0.26451114,-0.2718543,-0.27260777,-0.25574234,-0.24132244,-0.2526377,-0.25879687,-0.2695073,-0.24821344,-0.2522334,-0.26016834,-0.27344042,-0.27451417,-0.25221428,-0.2682195,-0.26044732,-0.25481892,-0.24290338,-0.22178398,-0.21689749,-0.21336378,-0.21093416,-0.19712315,-0.1755534,-0.16094115,-0.16918147,-0.16305578,-0.15182285,-0.1334868,-0.11230377,-0.11709292,-0.12657605,-0.14397795,-0.13156113,-0.14089534,-0.13873743,-0.14744936,-0.13839363,-0.12671907,-0.11436552,-0.09406362,-0.10710065,-0.1527557,-0.17608413,-0.19569969,-0.20215474,-0.23544791,-0.25979742,-0.25451016,-0.25085643,-0.2562758,-0.2733729,-0.2657966,-0.26655015,-0.2568179,-0.26731402,-0.27461424,-0.28126514,-0.26633188,-0.2697247,-0.27744976,-0.2845095,-0.28536037,-0.2828329,-0.27484855,-0.2897361,-0.29985037,-0.29179212,-0.2751854,-0.27520126,-0.28782785,-0.29399207,-0.32847843,-0.3677568,-0.3795296,-0.40331402,-0.4502551,-0.48311743,-0.43678382,-0.32598782,-0.20115776,-0.06325886,0.21990715,0.55969894,0.80238044,0.90534145,0.81045747,0.44924968,-0.017173046,-0.32803762,-0.46787244,-0.4510804,-0.38429824,-0.3402045,-0.32681686,-0.3329284,-0.33777598,-0.3346603,-0.32262814,-0.32330245,-0.33870295,-0.3414907,-0.34545246,-0.34250593,-0.3387479,-0.34990394,-0.35015458,-0.35721585,-0.3482091,-0.34481066,-0.35305095,-0.3587916,-0.360348,-0.3450038,-0.3421325,-0.34336182,-0.35862982,-0.35508665,-0.35058954,-0.33549324,-0.33625534,-0.3377002,-0.3394296,-0.33865258,-0.32922179,-0.33645543,-0.34392655,-0.34825563,-0.3447304,-0.33834547,-0.34594467,-0.34873414,-0.3448504,-0.34265196,-0.33877742,-0.34143144,-0.350079,-0.3475403,-0.3327639,-0.32316196,-0.32614496,-0.32967618,-0.33066154,-0.32478067,-0.3209501,-0.32930318,-0.3353557,-0.33503085,-0.33484158,-0.33221996,-0.3280204,-0.33999944,-0.33828652,-0.33414292,-0.33846775,-0.32957673,-0.35353366,-0.35091627,-0.3415331,-0.33625948,-0.34282178,-0.35513768,-0.36065355,-0.34690312,-0.35222253,-0.35206023,-0.35971802,-0.35936847,-0.34809232,-0.3479197,-0.35077628,-0.34331167,-0.3379335,-0.31736237,-0.30782637,-0.3032941,-0.30121332,-0.29529443,-0.27473775,-0.26583266,-0.25938898,-0.25713176,-0.2637929,-0.24483126,-0.2321712,-0.22929141,-0.2493347,-0.24945287,-0.22081505,-0.21686743,-0.23984472,-0.23827256,-0.23700976,-0.23625198,-0.22021534,-0.22972353,-0.23654008,-0.24677314,-0.2261175,-0.22606161,-0.22356492,-0.2403499,-0.23647963,-0.22852226,-0.22749162,-0.22820674,-0.25066975,-0.25611538,-0.23437242,-0.22909468,-0.23921691,-0.24789219,-0.25271916,-0.24209611,-0.25058362,-0.25354666,-0.27523464,-0.27307016,-0.2500629,-0.23935795,-0.25113308,-0.2637835,-0.2616626,-0.26329663,-0.25851095,-0.26600468,-0.28186026,-0.28116056,-0.26111695,-0.26429132,-0.2734497,-0.28374448,-0.28690186,-0.27616373,-0.27108905,-0.2747,-0.2859743,-0.28352275,-0.27200615,-0.25865272,-0.2580331,-0.26822746,-0.26435307,-0.25281554,-0.25327474,-0.25997636,-0.2666606,-0.2684736,-0.2642476,-0.26231977,-0.2490235,-0.2410981,-0.24334693,-0.22453399,-0.21931867,-0.22420403,-0.22063987,-0.21468896,-0.18326579,-0.16957171,-0.17068246,-0.17470187,-0.16480376,-0.14728846,-0.14490882,-0.14505988,-0.15819976,-0.17266533,-0.161018,-0.15313013,-0.15643914,-0.15981539,-0.15527862,-0.12966242,-0.17060971,-0.21353383,-0.2354358,-0.23118244,-0.22574896,-0.23836915,-0.2545956,-0.26592794,-0.2734831,-0.26833135,-0.2846284,-0.30556515,-0.3112092,-0.31033877,-0.28400296,-0.2946604,-0.29755205,-0.31226245,-0.32853296,-0.3129337,-0.30554357,-0.30163836,-0.31483334,-0.31706065,-0.3183842,-0.31004897,-0.32339606,-0.33428717,-0.35373336,-0.36011055,-0.40175554,-0.43603823,-0.47003275,-0.4999132,-0.525782,-0.49070486,-0.3742901,-0.23099485,-0.047961805,0.26127708,0.61910814,0.86479414,0.966866,0.9017809,0.63899523,0.21191739,-0.17887264,-0.41562793,-0.52991456,-0.5194083,-0.4450454,-0.400457,-0.4029262,-0.41489762,-0.3919988,-0.36694136,-0.3677137,-0.38261417,-0.4048748,-0.38693085,-0.37833387,-0.39006358,-0.3885165,-0.38665763,-0.38802713,-0.3932891,-0.40127176,-0.4029967,-0.40114012,-0.3936434,-0.39269,-0.40928158,-0.41650823,-0.41017354,-0.40728363,-0.40404648,-0.40646952,-0.420702,-0.4149271,-0.38440797,-0.38728738,-0.373778,-0.40393025,-0.41341218,-0.39745438,-0.3973807,-0.3993568,-0.41641277,-0.41443944,-0.41296425,-0.40569034,-0.4125702,-0.42099965,-0.43070877,-0.42036095,-0.41671884,-0.41601157,-0.43818784,-0.40598628,-0.40716115,-0.40892848,-0.41256583,-0.41726556,-0.4169996,-0.4076825,-0.4087896,-0.418696,-0.4345286,-0.4345956,-0.4207088,-0.4194434,-0.4136786,-0.44598353,-0.4417438,-0.43209314,-0.44445503,-0.44785902,-0.46167305,-0.46950147,-0.44637007,-0.4418533,-0.4342896,-0.4307721,-0.43534213,-0.42165685,-0.43121877,-0.44007406,-0.44839218,-0.448078,-0.41760802,-0.40857318,-0.40271926,-0.40743968,-0.39891782,-0.38175797,-0.35887134,-0.33978406,-0.33024135,-0.33540845,-0.32244515,-0.32030347,-0.33120802,-0.31059375,-0.30679408,-0.2933685,-0.28879187,-0.3000632,-0.30555856,-0.31196243,-0.30161893,-0.28609148,-0.2849857,-0.2976391,-0.3059005,-0.30265033,-0.29199743,-0.30625373,-0.30299708,-0.30924907,-0.3015165,-0.29286924,-0.29795521,-0.33240753,-0.3312717,-0.3060856,-0.30857366,-0.31512526,-0.3153512,-0.32054192,-0.308972,-0.31629106,-0.30696386,-0.32554957,-0.33384466,-0.30415305,-0.3130811,-0.3214722,-0.33321956,-0.33566958,-0.33983955,-0.32855627,-0.3325304,-0.3443811,-0.344512,-0.33548978,-0.3356781,-0.3343491,-0.34159338,-0.33653328,-0.3403906,-0.3436561,-0.32330245,-0.32479337,-0.32950258,-0.3080644,-0.31527656,-0.31468192,-0.32712623,-0.32908282,-0.3163635,-0.3077444,-0.3118623,-0.3139106,-0.31701222,-0.32358494,-0.31833357,-0.31807488,-0.31998938,-0.30453396,-0.29487783,-0.28778222,-0.2873827,-0.28315118,-0.28480032,-0.26091805,-0.24795388,-0.23799942,-0.24374494,-0.23762879,-0.21543184,-0.2011201,-0.19598196,-0.20676687,-0.21564087,-0.204571,-0.20676674,-0.20278387,-0.21506299,-0.2142225,-0.19744475,-0.17194484,-0.19068116,-0.24729542,-0.2770985,-0.2765017,-0.27864978,-0.29370585,-0.32175902,-0.33203033,-0.3238093,-0.3219036,-0.32372785,-0.33268502,-0.34024948,-0.32705307,-0.33545676,-0.33828875,-0.3489657,-0.3527412,-0.3507085,-0.3388807,-0.34618077,-0.34945875,-0.35847023,-0.3423997,-0.33041134,-0.32886806,-0.34074098,-0.36421728,-0.38473397,-0.43285853,-0.45664966,-0.49231434,-0.5538118,-0.51549405,-0.39067784,-0.24144682,-0.062147774,0.18640658,0.531448,0.81271166,0.9348292,0.8321939,0.4279748,-0.04989146,-0.36854038,-0.5010484,-0.5215485,-0.51725394,-0.45569023,-0.39855772,-0.37334967,-0.39061055,-0.4071413,-0.39489752,-0.3737817,-0.3863011,-0.3881059,-0.39540613,-0.3956441,-0.38115364,-0.38023067,-0.39758894,-0.39663902,-0.38406894,-0.37143192,-0.37892008,-0.38620225,-0.3814439,-0.3707357,-0.37023988,-0.38268304,-0.38723782,-0.37938645,-0.37995133,-0.38652474,-0.38417155,-0.38590336,-0.39297107,-0.38853502,-0.3660144,-0.37446576,-0.38129392,-0.38451168,-0.37373388,-0.36225533,-0.3674079,-0.37366727,-0.37842143,-0.3725437,-0.36155352,-0.36959657,-0.3863088,-0.38319197,-0.37418452,-0.3716862,-0.38189685,-0.37692523,-0.37827685,-0.37644675,-0.37906072,-0.36629373,-0.3793831,-0.3946579,-0.37488586,-0.35534644,-0.3516159,-0.36519656,-0.36623812,-0.37172955,-0.36495155,-0.36694908,-0.39190552,-0.402969,-0.38739645,-0.39118186,-0.3981186,-0.4083597,-0.41401616,-0.40670362,-0.3948687,-0.399125,-0.40843415,-0.40053973,-0.38398847,-0.38686994,-0.36123136,-0.36593884,-0.36052647,-0.33736923,-0.32446092,-0.30820373,-0.30147257,-0.2932237,-0.26967302,-0.25674236,-0.25930136,-0.25849158,-0.24880382,-0.2462567,-0.23345165,-0.23707287,-0.23851836,-0.24081458,-0.22467418,-0.21623129,-0.21393491,-0.22944213,-0.2297969,-0.2153244,-0.21517669,-0.21498877,-0.22188975,-0.23197763,-0.224165,-0.21202572,-0.21755561,-0.22398287,-0.23645161,-0.23179239,-0.2295589,-0.22617112,-0.24296875,-0.2463385,-0.22882143,-0.22862534,-0.2385257,-0.24335033,-0.25751248,-0.24425268,-0.22775206,-0.23302588,-0.23762365,-0.24483477,-0.23557642,-0.23235928,-0.23258844,-0.2509148,-0.2574883,-0.25623572,-0.24315672,-0.24398541,-0.25867376,-0.26971567,-0.24998063,-0.2595152,-0.25342932,-0.26686472,-0.27491352,-0.26203668,-0.24426629,-0.25762647,-0.26460278,-0.26197168,-0.25597346,-0.23708162,-0.25136366,-0.2553804,-0.26859656,-0.25518885,-0.24567991,-0.23999879,-0.23394075,-0.22857973,-0.2152936,-0.18381734,-0.17872106,-0.17616431,-0.17955711,-0.167191,-0.13712722,-0.12630723,-0.13537924,-0.1335019,-0.12463462,-0.11417984,-0.11798182,-0.1388263,-0.14594133,-0.13548347,-0.113475956,-0.12625733,-0.12170185,-0.1012414,-0.059546012,-0.0693743,-0.117089495,-0.15338017,-0.16967024,-0.17480315,-0.15957494,-0.1769418,-0.21211621,-0.23491432,-0.24331295,-0.24582192,-0.2441718,-0.2591881,-0.26089936,-0.25666818,-0.26099458,-0.26415625,-0.2716882,-0.27414942,-0.2659983,-0.25921914,-0.25898916,-0.2652086,-0.27620313,-0.24665812,-0.25892437,-0.26980698,-0.28851774,-0.337393,-0.38454363,-0.39319697,-0.45356286,-0.47726402,-0.42642045,-0.24934709,-0.07722073,0.17907074,0.5243173,0.8373509,0.9876795,0.89228773,0.4988811,-0.026276374,-0.36783984,-0.46249494,-0.40469855,-0.32823846,-0.33310923,-0.3331095,-0.32259497,-0.30503684,-0.31848627,-0.32386485,-0.3420224,-0.3249043,-0.30881077,-0.30800802,-0.3288628,-0.31694406,-0.3102706,-0.3053323,-0.3235769,-0.3249931,-0.33779535,-0.3517434,-0.32414868,-0.32324365,-0.32808167,-0.3419064,-0.32130796,-0.3177292,-0.31999922,-0.3166981,-0.32493386,-0.3162531,-0.30771488,-0.3136132,-0.33869636,-0.33637914,-0.32125115,-0.31274226,-0.32058033,-0.31575838,-0.3350866,-0.31832138,-0.31930262,-0.31937015,-0.3337273,-0.32824177,-0.31971377,-0.30938366,-0.30737355,-0.31356192,-0.3175513,-0.30488634,-0.30628377,-0.29899517,-0.31552398,-0.3199895,-0.3079332,-0.30767733,-0.29949355,-0.31898215,-0.32204095,-0.31049865,-0.3105064,-0.30525142,-0.32396755,-0.3251629,-0.31040183,-0.30336532,-0.3071699,-0.31855473,-0.31681296,-0.31607813,-0.30692407,-0.30909154,-0.31059778,-0.30635583,-0.27966166,-0.25372985,-0.25261384,-0.26372662,-0.24886695,-0.23332304,-0.22846855,-0.21981227,-0.23085335,-0.22912312,-0.21368527,-0.20200178,-0.20305061,-0.20231442,-0.20112637,-0.19482063,-0.17799285,-0.18698058,-0.19293924,-0.1916417,-0.17843847,-0.17393076,-0.18464449,-0.19864775,-0.2091463,-0.19143355,-0.19084601,-0.18882868,-0.19897214,-0.21148914,-0.20481129,-0.19439468,-0.19676845,-0.21049996,-0.2160231,-0.19694227,-0.19187628,-0.18846147,-0.1996449,-0.20782414,-0.19517426,-0.19255614,-0.2003133,-0.21420355,-0.23121582,-0.21976463,-0.22101122,-0.21948586,-0.23177381,-0.22709832,-0.22308448,-0.2147325,-0.21640226,-0.2317727,-0.24085449,-0.22717154,-0.22534053,-0.22488047,-0.24285474,-0.24363641,-0.24733272,-0.23240732,-0.23493117,-0.25271356,-0.25810865,-0.2272485,-0.22248076,-0.22657557,-0.24064277,-0.23936547,-0.23879541,-0.22893098,-0.2367645,-0.23723508,-0.23719902,-0.2256593,-0.20979817,-0.1825146,-0.19404423,-0.19884868,-0.16512854,-0.15194404,-0.14602329,-0.15309814,-0.1440503,-0.12353856,-0.10837778,-0.09895342,-0.102874614,-0.10769185,-0.09713574,-0.10550701,-0.12562695,-0.1418131,-0.14375061,-0.13501173,-0.11426871,-0.10429962,-0.118218295,-0.123695776,-0.09835562,-0.066021554,-0.09800979,-0.15741968,-0.20105302,-0.18365893,-0.18333405,-0.19095214,-0.22519194,-0.24459907,-0.2500834,-0.23133405,-0.23580456,-0.24531399,-0.26236185,-0.2556551,-0.25614867,-0.25690433,-0.2678082,-0.27955177,-0.26107517,-0.26440853,-0.26419878,-0.26231676,-0.2785165,-0.26505846,-0.25919887,-0.26946884,-0.31693822,-0.37236217,-0.3811094,-0.37816486,-0.42861706,-0.4998495,-0.5070626,-0.42189696,-0.29543805,-0.17924961,-0.05748606,0.17280978,0.5169435,0.7938412,0.91866976,0.8345153,0.48563024,0.032832433,-0.288887,-0.4349548,-0.4257904,-0.34763333,-0.3022012,-0.3185754,-0.31861207,-0.3185988,-0.32998714,-0.32107604,-0.31332958,-0.33372515,-0.34860173,-0.35222787,-0.3389849,-0.32303283,-0.31556645,-0.33119982,-0.33805496,-0.33272082,-0.32184747,-0.31532395,-0.32701716,-0.32788697,-0.32738784,-0.3242166,-0.31755725,-0.32947773,-0.33137834,-0.32160163,-0.31278318,-0.31683838,-0.32577932,-0.33939603,-0.3344069,-0.325166,-0.31696603,-0.32480016,-0.33453783,-0.3236588,-0.3188169,-0.31727663,-0.3358711,-0.33135098,-0.32152104,-0.3125283,-0.32220358,-0.3278168,-0.33690652,-0.32420903,-0.30837336,-0.31138548,-0.31597906,-0.3272694,-0.3217715,-0.3062495,-0.30074504,-0.31025144,-0.31168774,-0.31305715,-0.31855032,-0.30798116,-0.30891332,-0.31829906,-0.30713806,-0.3059265,-0.3119478,-0.3264406,-0.32893217,-0.3195038,-0.30928835,-0.30824545,-0.32285598,-0.3231468,-0.31510568,-0.30062997,-0.2972596,-0.30076587,-0.28309307,-0.28172153,-0.26495528,-0.2569885,-0.24728625,-0.24388829,-0.2218642,-0.20361531,-0.19386984,-0.21393873,-0.20103621,-0.20113218,-0.19830242,-0.20301193,-0.21940295,-0.22894125,-0.21104445,-0.21495207,-0.2091342,-0.21970706,-0.2284079,-0.22527751,-0.21735136,-0.2145386,-0.21548508,-0.22112833,-0.20351364,-0.20784889,-0.20050067,-0.21629848,-0.23350003,-0.22308713,-0.21899499,-0.20101346,-0.22815955,-0.2366254,-0.22604945,-0.2251609,-0.23653196,-0.23643778,-0.26223284,-0.24952158,-0.24466942,-0.24959698,-0.2688459,-0.27220115,-0.25846356,-0.24752195,-0.24682115,-0.24605756,-0.27511823,-0.27635595,-0.27882248,-0.27645323,-0.29021248,-0.28275144,-0.2879649,-0.2716127,-0.26795927,-0.28938264,-0.30147433,-0.27719608,-0.26129425,-0.26761237,-0.27601895,-0.29400444,-0.26510838,-0.2530834,-0.26457277,-0.26490852,-0.25662664,-0.2548213,-0.22297962,-0.20846671,-0.22878584,-0.23655957,-0.2396926,-0.22197562,-0.22414222,-0.21319301,-0.21075274,-0.2028503,-0.17836092,-0.17815034,-0.18232052,-0.18298815,-0.17809461,-0.15969923,-0.1535151,-0.17611983,-0.19859453,-0.18337321,-0.16577286,-0.15175892,-0.1621648,-0.16661666,-0.13140821,-0.12760127,-0.15903929,-0.22769387,-0.25318605,-0.24682693,-0.2724962,-0.27130178,-0.28164008,-0.30446008,-0.3147321,-0.30432078,-0.30173737,-0.31197405,-0.3396133,-0.33820835,-0.3133152,-0.30519468,-0.3216812,-0.3180523,-0.32460558,-0.32034722,-0.32123455,-0.3238637,-0.3372357,-0.32836148,-0.32471544,-0.3420342,-0.38453245,-0.4462981,-0.4540665,-0.46873719,-0.52037483,-0.55235815,-0.46496913,-0.3198276,-0.18009661,-0.06379861,0.1136129,0.3593031,0.6146328,0.7830345,0.89122784,0.983886,1.0245006,0.8750619,0.480085,-0.029977124,-0.37784803,-0.52045316,-0.49004465,-0.4164231,-0.38634863,-0.39699703,-0.4079725,-0.4061341,-0.3900082,-0.38328287,-0.400366,-0.41448945,-0.39594322,-0.396742,-0.39605027,-0.3962382,-0.40829346,-0.4079244,-0.40317863,-0.39907217,-0.40753317,-0.42549586,-0.41303244,-0.40637347,-0.42060083,-0.42656484,-0.43674397,-0.4319287,-0.42273822,-0.4055872,-0.41120115,-0.4154335,-0.4166407,-0.42557287,-0.42711768,-0.42422828,-0.43497136,-0.43913698,-0.42563376,-0.40545785,-0.4218733,-0.43670756,-0.44222644,-0.42490435,-0.43469727,-0.44775468,-0.44300905,-0.4270019,-0.4251222,-0.42555812,-0.44097796,-0.43904546,-0.42153847,-0.4084476,-0.41700324,-0.43100673,-0.4527411,-0.4486587,-0.43851605,-0.4313497,-0.44988593,-0.46402806,-0.44720292,-0.4444645,-0.44652113,-0.4595817,-0.4629607,-0.4574914,-0.4502668,-0.4510519,-0.47323078,-0.4877064,-0.4761802,-0.464542,-0.47052643,-0.48068264,-0.4762636,-0.449578,-0.42723098,-0.41889307,-0.4043179,-0.3949491,-0.37578034,-0.35456502,-0.34371617,-0.35265642,-0.35201675,-0.33440426,-0.30749035,-0.3007359,-0.30515245,-0.31258744,-0.30025515,-0.29763186,-0.2962491,-0.30277607,-0.32470492,-0.30708656,-0.29816017,-0.30224425,-0.3196744,-0.31240216,-0.30944362,-0.31367815,-0.31166244,-0.3199379,-0.31990147,-0.32069245,-0.30943623,-0.29863095,-0.32062522,-0.32769826,-0.32817286,-0.31995156,-0.31312123,-0.34199926,-0.3524538,-0.34060237,-0.3400627,-0.3402661,-0.34516817,-0.3452655,-0.34057996,-0.32544363,-0.33105204,-0.3511083,-0.34676453,-0.33333048,-0.3257357,-0.32535633,-0.34879488,-0.35209185,-0.34061268,-0.34020707,-0.32317415,-0.3470848,-0.35679114,-0.34920147,-0.3401855,-0.34077373,-0.35684568,-0.35875043,-0.35155463,-0.34647423,-0.33928603,-0.34326512,-0.3556932,-0.34301966,-0.33289665,-0.3322399,-0.33279133,-0.332442,-0.32855242,-0.31239417,-0.31011945,-0.30849937,-0.304578,-0.2885672,-0.2674655,-0.25505063,-0.26810214,-0.26499844,-0.2615159,-0.23740147,-0.24551345,-0.25118548,-0.23253381,-0.21704297,-0.20027333,-0.19672075,-0.21121311,-0.21500413,-0.21823771,-0.21026702,-0.2019574,-0.21023066,-0.22674501,-0.20284778,-0.17576784,-0.1666699,-0.20488921,-0.26446846,-0.26694,-0.25769672,-0.27677754,-0.31110552,-0.3134037,-0.33188927,-0.32732192,-0.3246998,-0.32561293,-0.33028048,-0.31783158,-0.30830348,-0.3197193,-0.33278736,-0.3408238,-0.33711362,-0.34042168,-0.34060717,-0.34420604,-0.3490026,-0.35458097,-0.33736005,-0.34786603,-0.35753593,-0.35838845,-0.34964916,-0.33963987,-0.34942052,-0.3739859,-0.44820657,-0.4653473,-0.46940735,-0.5085344,-0.54149127,-0.5028516,-0.33566052,-0.17998783,0.016443431,0.28355908,0.60208297,0.8498707,0.9314075,0.8314224,0.47802198,-0.005274509,-0.35449547,-0.50794035,-0.53326964,-0.5285062,-0.48328868,-0.41243896,-0.39504686,-0.4018861,-0.40061465,-0.4112685,-0.39746886,-0.38832992,-0.39563388,-0.4061973,-0.41087198,-0.4052134,-0.39078426,-0.38696182,-0.40587637,-0.4119145,-0.40086424,-0.40002143,-0.39146638,-0.40850636,-0.42919654,-0.41275847,-0.39614657,-0.39522013,-0.41851282,-0.41403976,-0.40127558,-0.39261502,-0.39754382,-0.40368384,-0.41706124,-0.40915975,-0.39712098,-0.3896331,-0.40358576,-0.40715033,-0.39549124,-0.3984894,-0.3925979,-0.39927176,-0.41000253,-0.39848086,-0.38765967,-0.39565718,-0.40202162,-0.41983503,-0.41251007,-0.38855776,-0.38798898,-0.39353636,-0.40613717,-0.38948283,-0.3878859,-0.39514324,-0.40174294,-0.4019982,-0.39269742,-0.40008166,-0.39902684,-0.40324005,-0.41612473,-0.3999903,-0.3906976,-0.3982544,-0.4152287,-0.42204925,-0.4113739,-0.40558365,-0.41062573,-0.41915247,-0.42501333,-0.423035,-0.41217542,-0.42098388,-0.42699715,-0.43104613,-0.40221325,-0.39434615,-0.3910155,-0.39948422,-0.384663,-0.37347698,-0.35013768,-0.32715088,-0.3319657,-0.31638333,-0.29845452,-0.2807263,-0.27515188,-0.27636528,-0.27743986,-0.26538718,-0.2621422,-0.25455794,-0.27418417,-0.27734637,-0.27861768,-0.26324385,-0.24586475,-0.26346752,-0.2772425,-0.26683524,-0.25360015,-0.24948575,-0.26040268,-0.25303152,-0.25888413,-0.25982502,-0.26054838,-0.272089,-0.28145912,-0.27711987,-0.2673672,-0.2652221,-0.29937342,-0.29343754,-0.281748,-0.27219453,-0.27398637,-0.28838646,-0.29270902,-0.27964684,-0.28462395,-0.28882375,-0.29856572,-0.3021426,-0.29061973,-0.29021433,-0.28551948,-0.29812613,-0.3111617,-0.29683042,-0.29909235,-0.29140815,-0.30767068,-0.31563395,-0.31311703,-0.30122718,-0.31373516,-0.32130986,-0.32622108,-0.31938526,-0.3101576,-0.3066616,-0.3256784,-0.31486768,-0.30770016,-0.2995195,-0.3022652,-0.3075655,-0.31730223,-0.30392745,-0.28254,-0.28126216,-0.26955074,-0.274109,-0.25675073,-0.24898413,-0.22880399,-0.23373374,-0.24709025,-0.23493387,-0.21069914,-0.20236756,-0.20275414,-0.19990255,-0.18532808,-0.17573173,-0.17840225,-0.19741966,-0.22045445,-0.19889888,-0.1880224,-0.1788025,-0.19410963,-0.18612774,-0.15714967,-0.1398447,-0.16985886,-0.21439835,-0.23179844,-0.25394264,-0.25382078,-0.27927735,-0.30962133,-0.32079005,-0.31998432,-0.31643173,-0.30651775,-0.3267837,-0.33025357,-0.32802635,-0.3137828,-0.31580302,-0.3232757,-0.35249147,-0.3370612,-0.32864577,-0.32219884,-0.33011177,-0.33841243,-0.33494174,-0.32799837,-0.32793638,-0.339416,-0.34979233,-0.33874813,-0.33022323,-0.34362355,-0.3527414,-0.37158036,-0.38748142,-0.42187643,-0.4639365,-0.47423688,-0.5136932,-0.54138064,-0.5271375,-0.4278867,-0.28897387,-0.12596798,0.1274505,0.45350456,0.74213964,0.8840663,0.8412432,0.5885122,0.15178914,-0.273721,-0.50280523,-0.52508825,-0.46062604,-0.40990773,-0.3906877,-0.40234405,-0.4101683,-0.39786616,-0.39478382,-0.39870209,-0.39775628,-0.41171435,-0.39382246,-0.39681104,-0.3969901,-0.4058611,-0.4093353,-0.40139073,-0.39306256,-0.39264885,-0.40473896,-0.41460314,-0.40191734,-0.38499415,-0.39589787,-0.40924808,-0.40476134,-0.40088546,-0.38213667,-0.3843933,-0.40426123,-0.41479874,-0.4059107,-0.40195218,-0.39406905,-0.39700115,-0.39931694,-0.4018784,-0.38458425,-0.37896898,-0.39268464,-0.40290707,-0.40079442,-0.3857078,-0.38122913,-0.3908371,-0.39603725,-0.39214185,-0.38576397,-0.3770948,-0.3950809,-0.38686842,-0.3855062,-0.37788504,-0.3772807,-0.37959847,-0.3975068,-0.38920346,-0.37669733,-0.37461326,-0.37538218,-0.38382083,-0.3750013,-0.3575203,-0.36335814,-0.37899622,-0.3815549,-0.37402874,-0.3654781,-0.3819377,-0.37654415,-0.38049817,-0.37734872,-0.37406477,-0.38018188,-0.39371568,-0.41267222,-0.39131886,-0.38084784,-0.37470537,-0.38961104,-0.39574656,-0.36447287,-0.3667966,-0.37112096,-0.36917394,-0.35972553,-0.34545273,-0.33234772,-0.31532305,-0.32144603,-0.3149547,-0.29291606,-0.28480664,-0.28664944,-0.2746324,-0.2790544,-0.28209075,-0.25852066,-0.24898882,-0.25885332,-0.26188526,-0.2673902,-0.24251255,-0.23758474,-0.27033055,-0.26397043,-0.26106462,-0.25175887,-0.25862136,-0.26129776,-0.26552913,-0.26493,-0.25859755,-0.2440747,-0.25983772,-0.26892757,-0.26201382,-0.25550455,-0.24735747,-0.26632357,-0.2793302,-0.27374744,-0.27277344,-0.27174357,-0.28144455,-0.2922323,-0.28374904,-0.2787605,-0.2774455,-0.28916055,-0.2930572,-0.288063,-0.269827,-0.2757897,-0.2856977,-0.29160684,-0.28396744,-0.2788216,-0.2810047,-0.285151,-0.2932021,-0.292654,-0.28262678,-0.28637743,-0.29141086,-0.31075075,-0.30040067,-0.30041504,-0.29946762,-0.30221462,-0.31936604,-0.29922438,-0.29152146,-0.28780836,-0.30338126,-0.32067615,-0.30032206,-0.3017576,-0.2856631,-0.30800462,-0.29882106,-0.2967357,-0.27940202,-0.261092,-0.2707524,-0.27574614,-0.2575986,-0.24171105,-0.22548608,-0.23944868,-0.24631235,-0.22755337,-0.21127406,-0.20052771,-0.19411582,-0.19646801,-0.18691663,-0.17110084,-0.14337368,-0.15171883,-0.17746422,-0.16120368,-0.16459869,-0.15544242,-0.16259903,-0.16935194,-0.15983874,-0.13629301,-0.11755078,-0.12121054,-0.17424643,-0.21605586,-0.21654263,-0.22394948,-0.25005195,-0.26002595,-0.26134074,-0.24814384,-0.26672012,-0.29195487,-0.32178214,-0.3031091,-0.2824131,-0.2830506,-0.3024482,-0.31509182,-0.2972201,-0.31365225,-0.30498925,-0.30733863,-0.31620577,-0.3099077,-0.2995197,-0.30497205,-0.30725497,-0.33180228,-0.31976968,-0.3116132,-0.30809203,-0.3346409,-0.37195313,-0.39381137,-0.4219781,-0.44079363,-0.48831445,-0.5286402,-0.480178,-0.3449171,-0.20332694,-0.04137099,0.21197593,0.5532329,0.8000147,0.94544005,1.0220087,1.0091234,0.8782142,0.6153348,0.267788,-0.10130798,-0.38769826,-0.5124716,-0.49622104,-0.44115865,-0.3764456,-0.37752667,-0.3805782,-0.37019143,-0.36045274,-0.36307192,-0.3841862,-0.36979076,-0.36433274,-0.3693196,-0.3787111,-0.389061,-0.36974174,-0.35711485,-0.36327755,-0.38450226,-0.38776612,-0.38309366,-0.3711899,-0.3833155,-0.38793218,-0.4119017,-0.3948017,-0.3826711,-0.3819634,-0.39130655,-0.40231028,-0.39379308,-0.38568196,-0.37179017,-0.38136634,-0.39349633,-0.39292622,-0.37864512,-0.38239393,-0.39923415,-0.39462584,-0.39053568,-0.38534927,-0.38998935,-0.38488635,-0.4104445,-0.38830283,-0.3825657,-0.38479903,-0.3878561,-0.3826197,-0.38532564,-0.37813613,-0.36530995,-0.38207775,-0.38641793,-0.3893623,-0.37878436,-0.38250715,-0.38745663,-0.38710627,-0.3731402,-0.3660493,-0.35987365,-0.3681179,-0.3821506,-0.37632158,-0.37170038,-0.3692132,-0.3964911,-0.40765694,-0.3956228,-0.3948175,-0.3875999,-0.4049618,-0.40470833,-0.3903247,-0.38420343,-0.38462746,-0.4014044,-0.41655347,-0.3893273,-0.38924706,-0.3799428,-0.36996925,-0.36761147,-0.34856436,-0.3266342,-0.31664112,-0.3181311,-0.3170755,-0.31605121,-0.30366233,-0.29865736,-0.30159867,-0.30448928,-0.29151008,-0.27280194,-0.26036182,-0.28562886,-0.29888856,-0.2799069,-0.2731685,-0.2778824,-0.2870793,-0.2908744,-0.28208563,-0.2724191,-0.2852349,-0.27976885,-0.2868128,-0.28196794,-0.26619434,-0.2690836,-0.27687913,-0.2810791,-0.28754827,-0.2724227,-0.275272,-0.30358168,-0.30888066,-0.30343154,-0.30965275,-0.30546972,-0.31761712,-0.32493767,-0.311192,-0.2991594,-0.31074575,-0.32550475,-0.3237772,-0.3140092,-0.30536836,-0.30924106,-0.3118098,-0.32218337,-0.3133646,-0.31272858,-0.3206994,-0.33251742,-0.3490989,-0.3474784,-0.33425033,-0.3272886,-0.33491945,-0.34375727,-0.33758828,-0.32327732,-0.3155933,-0.34362456,-0.35000518,-0.35066044,-0.34271428,-0.33871195,-0.3484143,-0.3526202,-0.33796698,-0.33102825,-0.3168353,-0.33178526,-0.34341624,-0.3405078,-0.32583115,-0.3253851,-0.33119783,-0.3433528,-0.32766652,-0.31818002,-0.31240216,-0.32017964,-0.31483486,-0.28541508,-0.2761152,-0.27386,-0.28435692,-0.29241726,-0.26435333,-0.2388833,-0.23257813,-0.23423688,-0.24223812,-0.21846825,-0.21192674,-0.2076875,-0.2234159,-0.25119585,-0.2280075,-0.2253225,-0.22911014,-0.24205433,-0.22543284,-0.2138657,-0.2145183,-0.25228977,-0.29246682,-0.31209743,-0.30770984,-0.32543597,-0.3449101,-0.36487487,-0.38070795,-0.3684548,-0.3569605,-0.36363283,-0.37086973,-0.37086985,-0.37683693,-0.3702109,-0.37478855,-0.38201675,-0.39139867,-0.38905185,-0.39074773,-0.38551334,-0.40234745,-0.40246007,-0.38343695,-0.36803058,-0.3828852,-0.43706185,-0.4858291,-0.5011284,-0.5126849,-0.560007,-0.5460249,-0.43961516,-0.2580074,-0.036095563,0.28246573,0.61860454,0.8077756,0.8747846,0.69780576,0.29318297,-0.12351552,-0.38798663,-0.51789,-0.5615277,-0.5847214,-0.5741882,-0.52103984,-0.47270545,-0.4423193,-0.443919,-0.44038278,-0.44732997,-0.43560663,-0.42922074,-0.4164534,-0.43654177,-0.45932597,-0.43479922,-0.43036526,-0.42083365,-0.43711716,-0.44191128,-0.45677885,-0.44200176,-0.42854518,-0.44984546,-0.45938778,-0.4515303,-0.43988279,-0.431731,-0.44715005,-0.45567492,-0.43783593,-0.4304342,-0.4438987,-0.45772356,-0.46531948,-0.450448,-0.4404045,-0.4437876,-0.4482082,-0.46223634,-0.45402735,-0.44533634,-0.44090182,-0.4448892,-0.4458974,-0.4570017,-0.45050067,-0.44193903,-0.45514825,-0.45539126,-0.44988805,-0.44609308,-0.44903633,-0.44589955,-0.45897716,-0.43957692,-0.43075994,-0.44268402,-0.45353982,-0.4498712,-0.44808418,-0.43676743,-0.4426992,-0.43701094,-0.45755404,-0.46429777,-0.45083797,-0.46834922,-0.4832246,-0.5008393,-0.49655265,-0.46935177,-0.47719616,-0.48289257,-0.49078298,-0.48992062,-0.4804344,-0.48361856,-0.4881224,-0.49363333,-0.4877775,-0.46999907,-0.45788166,-0.4380424,-0.42676675,-0.40665022,-0.3769387,-0.37105516,-0.37380788,-0.36889893,-0.35465413,-0.33082363,-0.3310216,-0.3271295,-0.31998092,-0.31546912,-0.29774183,-0.3022368,-0.30313146,-0.31000015,-0.31132057,-0.2952142,-0.28799182,-0.2978981,-0.2985522,-0.30462563,-0.29364434,-0.2943298,-0.31767717,-0.32104242,-0.32470074,-0.31343818,-0.31354502,-0.31643716,-0.3193807,-0.31085214,-0.30417666,-0.30461037,-0.31385502,-0.32563367,-0.3260005,-0.3134463,-0.30536607,-0.3154732,-0.32508492,-0.3256298,-0.31490982,-0.31453374,-0.32494944,-0.33755907,-0.31627315,-0.30868182,-0.31621966,-0.3362292,-0.3429049,-0.33799157,-0.32644895,-0.3208697,-0.33156908,-0.34345588,-0.3428952,-0.3288114,-0.3271857,-0.3275234,-0.329017,-0.33186167,-0.31803173,-0.3146142,-0.32718974,-0.32695484,-0.31772414,-0.3189213,-0.31093195,-0.32263243,-0.32040924,-0.31582627,-0.29950458,-0.2957741,-0.31251717,-0.30299002,-0.31293085,-0.28220618,-0.28601548,-0.2813456,-0.2772536,-0.27624893,-0.25061777,-0.23800024,-0.24212797,-0.23636776,-0.23465875,-0.2129425,-0.20637079,-0.20688684,-0.20207442,-0.19887076,-0.17268988,-0.17818992,-0.1891655,-0.21105586,-0.20916142,-0.18191051,-0.18967848,-0.194545,-0.1857771,-0.16016051,-0.13277039,-0.15732735,-0.21535932,-0.22659822,-0.2316767,-0.23113844,-0.23997381,-0.2572142,-0.27691543,-0.27569962,-0.28340125,-0.29690555,-0.3195609,-0.32518688,-0.31559086,-0.31785005,-0.31098565,-0.32906848,-0.3304058,-0.330728,-0.3069293,-0.32414725,-0.33512315,-0.32665092,-0.32863617,-0.3132721,-0.31324568,-0.32938853,-0.3425001,-0.3435356,-0.34046403,-0.38610888,-0.43463385,-0.46871933,-0.5068148,-0.5220091,-0.46946436,-0.32416767,-0.16289154,0.069657795,0.39247066,0.7154581,0.91600454,0.93256235,0.69032747,0.2025928,-0.27343372,-0.49430615,-0.5017057,-0.41884512,-0.35678715,-0.36556312,-0.37446094,-0.3778097,-0.3734159,-0.35424006,-0.37039405,-0.38072848,-0.39571044,-0.38076136,-0.36355302,-0.37421727,-0.3715745,-0.38180774,-0.3749603,-0.3573595,-0.35582212,-0.36921424,-0.36667368,-0.36386836,-0.34752148,-0.34860197,-0.3529499,-0.36849475,-0.37036806,-0.35993084,-0.36006746,-0.3611138,-0.37423983,-0.36912614,-0.36411244,-0.3692877,-0.37274978,-0.37740153,-0.36836872,-0.36104122,-0.35548067,-0.3657842,-0.3646518,-0.36115825,-0.34501973,-0.34215474,-0.34995535,-0.36633202,-0.34983394,-0.34390244,-0.34622627,-0.35515168,-0.36520103,-0.3636328,-0.34780037,-0.35243633,-0.35361537,-0.3650536,-0.35826844,-0.35177684,-0.35220063,-0.36048228,-0.36641952,-0.35927027,-0.3564459,-0.35942608,-0.37251475,-0.3814344,-0.3767209,-0.36849064,-0.35317755,-0.36055622,-0.37468737,-0.36488926,-0.34691915,-0.3466842,-0.3569127,-0.34355327,-0.3243259,-0.29788962,-0.29376712,-0.29130688,-0.28298956,-0.2629253,-0.23911832,-0.22912037,-0.23533514,-0.21931754,-0.22592795,-0.20881146,-0.21392499,-0.22028586,-0.23089926,-0.22507872,-0.21143275,-0.20882712,-0.20802715,-0.22057875,-0.21065077,-0.20059419,-0.20777878,-0.20764151,-0.21702708,-0.21984328,-0.19804943,-0.20437363,-0.21535079,-0.21678323,-0.21857485,-0.20986575,-0.21943687,-0.22680315,-0.23947607,-0.24499533,-0.22323044,-0.23314066,-0.24148868,-0.24754727,-0.24571665,-0.2341552,-0.23622918,-0.23993525,-0.24832633,-0.24767432,-0.23735963,-0.24646296,-0.24942124,-0.2595603,-0.2510439,-0.24991779,-0.2547239,-0.26718235,-0.26822105,-0.26254073,-0.25165218,-0.2547715,-0.25988135,-0.27351406,-0.28081217,-0.25781283,-0.25482205,-0.26207238,-0.26913065,-0.25124514,-0.24805798,-0.2502495,-0.25627723,-0.2517601,-0.2499086,-0.22089511,-0.21417059,-0.21346812,-0.21279317,-0.20539899,-0.18452513,-0.1810361,-0.18142791,-0.20031556,-0.19061086,-0.14861766,-0.14060032,-0.14383234,-0.14038762,-0.13234416,-0.12497099,-0.13111277,-0.14479317,-0.14752206,-0.14367086,-0.12401044,-0.13200366,-0.1307726,-0.11964828,-0.120225236,-0.15496832,-0.1831114,-0.2006539,-0.21638966,-0.23180686,-0.23879366,-0.24204408,-0.26049793,-0.2799465,-0.28203762,-0.2612451,-0.2734948,-0.2765006,-0.27981523,-0.2835541,-0.2716243,-0.27852646,-0.28035885,-0.282734,-0.2909786,-0.2708507,-0.28013033,-0.28561756,-0.3002157,-0.29254416,-0.29747522,-0.2916974,-0.30952165,-0.3378754,-0.3694462,-0.40422362,-0.41790965,-0.46799618,-0.50678134,-0.43587828,-0.27893963,-0.114481315,0.09208958,0.42149273,0.7621033,0.92328113,0.8700513,0.5143009,-0.00903833,-0.38452515,-0.5070539,-0.4732749,-0.42288828,-0.3853432,-0.3610921,-0.34232005,-0.35985318,-0.34347844,-0.35355508,-0.34227645,-0.3371857,-0.3420366,-0.35388172,-0.35371232,-0.3659982,-0.3303286,-0.34329316,-0.34307158,-0.3444011,-0.34601167,-0.33126,-0.32506555,-0.33864358,-0.35264713,-0.35433424,-0.33676705,-0.34455618,-0.344324,-0.35667136,-0.34978157,-0.32710323,-0.32731533,-0.33048126,-0.34419882,-0.34002855,-0.32902205,-0.3240576,-0.32430857,-0.3310959,-0.33532202,-0.31001705,-0.32849097,-0.3327046,-0.34782273,-0.33838928,-0.33395168,-0.340808,-0.3437547,-0.34935346,-0.33614847,-0.32808262,-0.32701844,-0.33594087,-0.33753946,-0.32808584,-0.3183623,-0.31225246,-0.31953272,-0.3228673,-0.3334703,-0.31650233,-0.32594055,-0.34421226,-0.34158424,-0.3410003,-0.33521527,-0.34061074,-0.3437383,-0.35034758,-0.3458918,-0.32704583,-0.34140503,-0.33264172,-0.3481621,-0.33601743,-0.3183854,-0.3129346,-0.3177504,-0.30746907,-0.30082574,-0.27850476,-0.26565427,-0.2633626,-0.25994194,-0.24057356,-0.22341862,-0.22591758,-0.22544958,-0.22942162,-0.22379981,-0.21600953,-0.21009493,-0.21601437,-0.22398657,-0.22545445,-0.20193899,-0.20675282,-0.21085832,-0.21252224,-0.22341426,-0.20092656,-0.20897493,-0.21151976,-0.21381262,-0.20678334,-0.20082097,-0.20012887,-0.20666356,-0.22758915,-0.21890868,-0.20741707,-0.21192716,-0.2338475,-0.25305027,-0.24401061,-0.2284405,-0.21973863,-0.23162799,-0.23719844,-0.23618415,-0.22351664,-0.23999335,-0.23955406,-0.2504015,-0.25128114,-0.23182632,-0.23094247,-0.24449232,-0.2406555,-0.24487515,-0.23012325,-0.24862882,-0.2513251,-0.26417008,-0.259565,-0.24701282,-0.24780013,-0.24834983,-0.26321462,-0.26329505,-0.25147673,-0.25004882,-0.25628978,-0.26958036,-0.25962833,-0.23962624,-0.24142718,-0.25025845,-0.2580639,-0.25802857,-0.2438876,-0.22495097,-0.23804508,-0.2355053,-0.22846757,-0.2022452,-0.19273134,-0.20152098,-0.18865573,-0.17096607,-0.16259949,-0.17205845,-0.17729133,-0.15872931,-0.14355262,-0.12891412,-0.11400281,-0.110929094,-0.11858585,-0.12707481,-0.12315124,-0.131867,-0.1381179,-0.13672198,-0.13958952,-0.11244063,-0.09682246,-0.09142103,-0.092295006,-0.13708241,-0.15209362,-0.17128405,-0.1859393,-0.20958744,-0.2087226,-0.21163036,-0.21253192,-0.24533522,-0.27070463,-0.27456227,-0.25629473,-0.25355178,-0.2651188,-0.27196535,-0.28360468,-0.27364212,-0.28990135,-0.29074723,-0.30295283,-0.2954759,-0.28648594,-0.27833948,-0.2915299,-0.30064955,-0.28544948,-0.2810859,-0.28562716,-0.3139557,-0.3618476,-0.41060716,-0.41035748,-0.44715732,-0.5024364,-0.545312,-0.5123513,-0.45004177,-0.3707566,-0.2938378,-0.22192337,-0.0851586,0.17395313,0.52437556,0.7904447,0.9103359,0.81725585,0.48291925,0.016732672,-0.34780082,-0.48248217,-0.44786468,-0.3727056,-0.33758128,-0.34324378,-0.3533848,-0.3587265,-0.3309058,-0.34539902,-0.3492637,-0.37031403,-0.36114055,-0.34726173,-0.3462312,-0.34059462,-0.35249162,-0.34597293,-0.3449947,-0.34573227,-0.36140737,-0.36709917,-0.36877704,-0.35628566,-0.35096222,-0.3600259,-0.3503996,-0.3441101,-0.34524795,-0.34976286,-0.3621907,-0.37312666,-0.37264356,-0.36588094,-0.35180977,-0.37331867,-0.3771767,-0.36456951,-0.34066752,-0.3424751,-0.35766977,-0.36251283,-0.3711764,-0.3507878,-0.35569656,-0.3600173,-0.3662988,-0.34887567,-0.34874335,-0.336796,-0.34705752,-0.35611343,-0.35276935,-0.33848795,-0.33408454,-0.35371077,-0.34877875,-0.3385875,-0.33711904,-0.34708416,-0.35300562,-0.3625471,-0.3609261,-0.35188714,-0.35855773,-0.36124793,-0.36655402,-0.37628266,-0.37154797,-0.3558814,-0.38106376,-0.402487,-0.3948136,-0.37748706,-0.37515366,-0.37891597,-0.37552425,-0.36695012,-0.36087683,-0.36319062,-0.3515776,-0.36976632,-0.34766886,-0.3179573,-0.30402094,-0.29709354,-0.3036546,-0.28533953,-0.26528066,-0.2604861,-0.2547132,-0.26275542,-0.25007492,-0.2509302,-0.2567438,-0.25487313,-0.27042338,-0.26106653,-0.24998136,-0.24634962,-0.26172927,-0.27486947,-0.27699465,-0.25617835,-0.26440603,-0.26570123,-0.28127158,-0.27993372,-0.27018186,-0.25738338,-0.27029142,-0.27033725,-0.2826079,-0.2778135,-0.28322625,-0.29231006,-0.30459982,-0.30869293,-0.3032238,-0.30648017,-0.30337,-0.30828053,-0.30710718,-0.30456594,-0.31381595,-0.31656995,-0.3201702,-0.31843302,-0.30289027,-0.2909797,-0.30043933,-0.31059915,-0.3230792,-0.3108542,-0.32356963,-0.31996936,-0.33051327,-0.32815516,-0.31639403,-0.32815444,-0.3386682,-0.3507621,-0.33760065,-0.32874936,-0.3299382,-0.34515148,-0.35878393,-0.34118983,-0.31529927,-0.3134206,-0.32639515,-0.3249336,-0.31781402,-0.30672222,-0.3167562,-0.31483108,-0.33904147,-0.32630715,-0.29786053,-0.29887035,-0.31170908,-0.2984061,-0.29894444,-0.2892531,-0.28284317,-0.2757487,-0.2710657,-0.24652736,-0.23860638,-0.22345307,-0.21582632,-0.21272835,-0.20779015,-0.19651718,-0.21302578,-0.23370579,-0.23104843,-0.23722948,-0.2198351,-0.20851988,-0.20577182,-0.21509773,-0.23191942,-0.2490265,-0.28021497,-0.28679138,-0.31573617,-0.32614306,-0.32101727,-0.3335557,-0.35245925,-0.34668356,-0.34299982,-0.34442154,-0.36365676,-0.35978344,-0.36918566,-0.36415908,-0.35264924,-0.35641563,-0.36590773,-0.3719639,-0.37460127,-0.35663185,-0.35634202,-0.36367634,-0.37006903,-0.3707808,-0.35618702,-0.3595598,-0.3995892,-0.44849184,-0.47668675,-0.48222384,-0.5335555,-0.57366824,-0.5552014,-0.4389368,-0.2778703,-0.0663822,0.22262563,0.5371151,0.78731316,0.89364403,0.6978451,0.24721017,-0.21209823,-0.49061838,-0.54208136,-0.5077236,-0.4361499,-0.44017786,-0.4223475,-0.4289396,-0.41094053,-0.41865835,-0.42976853,-0.4210554,-0.41987792,-0.4159159,-0.42741486,-0.44451642,-0.43960017,-0.42665112,-0.42487678,-0.436707,-0.44077623,-0.43264604,-0.4212082,-0.429616,-0.43482375,-0.4368825,-0.44120258,-0.42643112,-0.41912028,-0.42446306,-0.44179973,-0.43976033,-0.43306738,-0.42884997,-0.43069738,-0.44081917,-0.45002317,-0.44211856,-0.44350165,-0.4417484,-0.45210215,-0.44415376,-0.42897904,-0.43039155,-0.43187866,-0.44883218,-0.43493325,-0.42631072,-0.4226764,-0.42613223,-0.44428068,-0.42964095,-0.4243318,-0.42541993,-0.43104276,-0.44626427,-0.44017506,-0.42901495,-0.43605983,-0.4330483,-0.4402601,-0.44267294,-0.43940118,-0.4360191,-0.4469535,-0.45685267,-0.4489853,-0.44377664,-0.4416906,-0.4516981,-0.47034606,-0.46329978,-0.45969036,-0.46431896,-0.47229573,-0.48480386,-0.5020175,-0.4836311,-0.47586593,-0.49148405,-0.5037066,-0.48314187,-0.45578644,-0.44612408,-0.43772155,-0.4263775,-0.4098935,-0.37865222,-0.3661697,-0.36134484,-0.34918168,-0.34594443,-0.32752225,-0.31477246,-0.30432248,-0.30683526,-0.30960402,-0.28860638,-0.2800354,-0.27952108,-0.2924017,-0.29417825,-0.27427912,-0.28107518,-0.29064345,-0.2962571,-0.2918994,-0.28610715,-0.28876227,-0.2920972,-0.30299765,-0.3030804,-0.29206508,-0.28457224,-0.2933134,-0.30789173,-0.31133235,-0.29542878,-0.28330508,-0.29321373,-0.30191767,-0.30417407,-0.29371023,-0.30660057,-0.31282854,-0.32387158,-0.3304166,-0.30501637,-0.3065385,-0.3092003,-0.3208127,-0.32053202,-0.30622825,-0.304566,-0.30645198,-0.31986377,-0.32427433,-0.30754364,-0.3048577,-0.32330096,-0.32881024,-0.3240023,-0.32248417,-0.31363174,-0.31844667,-0.33336362,-0.33086422,-0.31521216,-0.32106856,-0.33580437,-0.3416072,-0.33420387,-0.32214388,-0.31894425,-0.32702017,-0.3209648,-0.3246331,-0.310279,-0.30712968,-0.3078154,-0.31417528,-0.2895926,-0.26745236,-0.26319826,-0.26206437,-0.25311264,-0.24471514,-0.2370402
