0.03071486,0.04212561,0.013984812,0.025731862,0.030486988,0.03779462,0.045654826,0.056188732,0.0446219,0.04312988,0.024198212,0.020264074,0.011411707,0.012552807,0.022451302,0.030857896,0.034518395,0.025455378,0.02328914,0.03979061,0.04416144,0.050019708,0.03487431,0.03988791,0.028651118,0.019587904,0.033479434,0.04794765,0.052616227,0.056088675,0.045145374,0.031924184,0.017677702,0.023876186,0.028009403,0.04052256,0.044561055,0.04576161,0.042103626,0.035980053,0.043339826,0.045952525,0.033188067,0.023307092,0.02930012,0.034492355,0.035561427,0.032877244,0.03134551,0.043544315,0.04952837,0.04414094,0.038028784,0.031537574,0.033043142,0.040338136,0.040275145,0.046657562,0.04119848,0.04033485,0.030417116,0.02397918,0.018796096,0.023654204,0.021459054,0.024368629,0.03695557,0.041054048,0.04933965,0.046082623,0.044330698,0.021026293,0.018842569,0.023362676,0.025233395,0.050503258,0.04882187,0.051587697,0.04420163,0.03211444,0.024482818,0.02584962,0.022719663,0.019439822,0.023495782,0.030563848,0.03470595,0.03655982,0.043425187,0.045388486,0.04451952,0.032745805,0.023873065,0.025545556,0.02778731,0.031811286,0.0335187,0.038526118,0.032860853,0.011687905,0.018826656,0.026817102,0.030072447,0.029931277,0.03323014,0.04055314,0.0394589,0.05061102,0.050626267,0.036349013,0.025181253,0.014054405,0.016872263,0.02327564,0.025369024,0.02530985,0.035841238,0.03404096,0.038216725,0.040388227,0.035424672,0.034697615,0.035509713,0.032248847,0.02900226,0.039922167,0.038088646,0.028661866,0.030763263,0.032482166,0.0457553,0.043803345,0.056989826,0.047671117,0.017054876,0.005371463,0.000964978,0.025346214,0.05064676,0.059172217,0.06518862,0.062777266,0.042541105,0.01674635,0.008187386,0.020236472,0.032039724,0.04256044,0.047891032,0.050818473,0.044541553,0.02726762,0.019471373,0.019436397,0.030705266,0.036940817,0.033443253,0.03669519,0.03084326,0.03394803,0.02638234,0.023539504,0.019785445,0.017998379,0.010076815,0.014959138,0.014497711,0.017005421,0.020705417,0.019421779,0.025177557,0.02319077,0.012315708,0.007246978,0.004038114,0.010072985,0.00367219,0.010123999,0.027608136,0.030158954,0.034606144,0.034069195,0.018689176,0.005073845,0.012297126,0.020967638,0.030880585,0.036198694,0.029861331,0.016239638,0.019112768,0.007743255,-0.001024249,0.00050026,-0.000235665,-9.94E-05,0.001515093,0.01315748,0.01520958,0.01162353,0.008667222,-7.65E-06,-0.000755965,-0.012203263,-0.005270132,0.011683642,0.013966904,0.015813543,0.016332403,0.022756502,-0.014142052,-0.018064363,-0.009038461,-0.010434246,-0.006791682,0.01426072,0.019627672,0.013691898,0.018434929,0.017117584,0.004465668,-0.00577195,-0.012551498,-0.015217532,-0.015194941,-0.013755539,0.006260992,0.002342832,0.001945424,0.009872599,0.000349308,-0.011115206,-0.008534328,-0.016106062,-0.02089386,-0.01563027,-0.018756185,-0.0056143,0.006091927,0.011465707,-0.004540416,-0.017773084,-0.023273416,-0.008933888,-0.018725734,-0.006177892,0.007755089,0.016048757,0.012512959,-0.000932823,-0.02026864,-0.019683275,-0.028949128,-0.024606323,-0.012137009,-0.003424632,0.015771829,0.012120409,-0.002139474,-0.008480023,-0.012019107,-0.02444309,-0.026414376,-0.018516492,-0.018017044,-0.01564416,-0.004448948,-0.012412119,-0.00332377,0.000628336,-0.005018466,-0.016532559,-0.009624991,0.007049611,0.014284895,0.006159027,-0.002253398,-0.013861839,-0.02599055,-0.038315654,-0.031621847,-0.028618656,-0.022985274,-0.01942912,-0.016989,-0.013907468,-0.015416078,-0.006421226,-0.00593672,-0.000424652,0.003388747,-0.00436917,-0.007143672,-0.012292698,-0.023294797,-0.025056228,-0.019042945,-0.013764319,-0.01856028,-0.01973192,-0.029705608,-0.028096696,-0.018728537,-0.02089728,-0.016070629,-0.014263326,-0.0102047,-0.009448014,-0.01295389,-0.015471341,-0.023533016,-0.02655916,-0.030353848,-0.02956088,-0.03377215,-0.031018281,-0.022396723,-0.013067408,-0.004519947,0.005266679,-0.004917827,-0.02382827,-0.04527923,-0.038041323,-0.04166652,-0.045864493,-0.0258358,-0.012324434,-0.009529962,-0.010222892,-0.01462855,-0.026999434,-0.029902406,-0.028497243,-0.016000833,-0.024397707,-0.01728652,-0.012370629,-0.022746157,-0.014422994,-0.029625895,-0.03549925,-0.04414275,-0.051906265,-0.03892043,-0.023237968,-0.005528748,-0.02193332,-0.03178585,-0.025567712,-0.024910556,-0.025276894,-0.023241604,-0.019134974,-0.020485567,-0.020034667,-0.024347171,-0.009679504,-0.002296996,0.001518858,-0.010980481,-0.018855961,-0.014633544,-0.016839284,-0.028700925,-0.020614162,-0.008350961,-0.004466201,-0.007428303,-0.017575718,-0.030177126,-0.028672919,-0.024774922,-0.024885338,-0.025410164,-0.019413074,-0.003472013,0.000484907,-0.000630748,0.004061549,0.004521823,-0.01182756,-0.015880624,-0.026974399,-0.023802526,-0.009135483,-0.004227538,0.009359891,0.006331682,0.005492919,-0.009270792,-0.016010161,-0.021286478,-0.016366847,-0.01531533,-0.009547271,-0.005992223,-0.011542889,-0.019080037,-0.016176503,-0.006325648,-0.002659073,-0.003682187,-0.011328069,-0.009391108,-0.010312427,-0.009457991,-0.001927604,-0.002864515,-0.001967674,0.004531702,-0.011349577,-0.008375932,-0.016255401,-0.017808132,-0.004144154,-0.00030964,0.009245293,0.003535886,0.003374327,-0.017231695,-0.026492333,-0.024321135,-0.023106959,-0.018489199,-0.020995397,-0.006359724,-0.000447862,0.003341688,0.001801854,-0.00092285,-0.005931434,-0.02034735,-0.025357345,-0.025271917,-0.023550993,-0.004110791,-0.006926334,-0.011232748,-0.005315926,-0.01496884,-0.02514321,-0.026865253,-0.02850684,-0.020069333,-0.01583007,-0.014611462,-0.014083762,-0.005991409,-0.00510265,-0.013620579,-0.022989212,-0.030464472,-0.030090611,-0.026579477,-0.019585267,-0.014364088,-0.008461619,-0.014178366,-0.007607199,0.003554492,-0.022813609,-0.032345418,-0.035582006,-0.034686007,-0.030891372,-0.028390218,-0.015194338,-0.009172265,-0.010171557,-0.015045331,-0.025217801,-0.015980829,-0.00365421,0.001065556,-0.000456433,0.005999302,0.002977413,-0.003128966,-0.00540503,-0.01844723,-0.032613903,-0.03430669,-0.035988245,-0.03076424,-0.02523034,-0.012575492,-0.001245937,0.007514775,-0.003838274,-0.00922842,-0.023443688,-0.019492302,-0.022531414,-0.029337134,-0.008905827,-0.011843197,-0.005307421,0.000824789,-0.00342122,-0.011050602,-0.019667313,-0.021079306,-0.014124924,-0.008959235,-0.006036624,-0.00454761,-0.004989202,-0.007469154,-0.010938898,-0.009584507,-0.016268533,-0.023151493,-0.034813613,-0.031135743,-0.015973546,-0.002849373,-1.21E-05,-0.00213175,-0.006503929,-0.007880825,-0.012781321,-0.013366347,-0.021566829,-0.02534537,-0.021002578,-0.01807256,-0.015867501,-0.009311745,-0.000558195,0.000539358,-0.008470633,-0.022436704,-0.030537039,-0.036818728,-0.019672446,-0.004075388,-0.006046359,-0.001569787,-3.66E-05,-0.008005805,-0.01410431,-0.025444077,-0.028116781,-0.023342993,-0.023218507,-0.02481635,-0.009626998,-0.000102846,0.01107823,-0.005148505,-0.016673056,-0.038392965,-0.04095978,-0.02600451,-0.01604247,-0.007269811,-0.000195467,-0.011583767,-0.019074144,-0.02522847,-0.02963965,-0.022103878,-0.022214586,-0.026348704,-0.014581739,-0.004532321,-0.006684892,-0.011165648,-0.008815419,-0.020418419,-0.024193358,-0.028810745,-0.036842126,-0.027160652,-0.024031734,-0.025768058,-0.013039078,-0.005675693,-0.018649612,-0.020806296,-0.030888844,-0.03753213,-0.03834698,-0.026826749,-0.019697862,-0.014407014,-0.00711848,-0.007250279,-0.014130672,-0.01652314,-0.035711322,-0.034592822,-0.035207793,-0.035041563,-0.030074699,-0.02504237,-0.022154957,-0.010232896,-0.010659686,-0.017859655,-0.023203691,-0.030021973,-0.032623883,-0.035995282,-0.025103047,-0.0195662,-0.009590588,0.005338229,0.000619087,-0.004125946,-0.006896155,-0.019122452,-0.028961342,-0.030072499,-0.021079373,-0.013025189,-0.010347821,-0.007401458,-0.000684019,-0.000349358,-0.010709399,-0.010288943,-0.022082156,-0.025114918,-0.021492073,-0.022057815,-0.00675653,-0.002673443,0.001585363,-0.015099595,-0.012125121,-0.008621352,-0.026735509,-0.01599823,-0.015539078,-0.006998124,5.23E-06,0.00281277,0.005604507,-0.000110838,-0.01827465,-0.023669424,-0.019264547,-0.01711647,-0.004888802,-0.005623947,-0.002926988,0.000645887,-0.000448409,0.000500484,-0.001129841,-0.006706667,-0.013560118,-0.01511076,-0.015078484,-0.007865985,0.002398197,0.008047078,0.01068173,0.000607851,-0.006657574,-0.008912974,-0.001302765,0.000203653,-0.000151449,0.000281303,-0.001462935,-0.008664425,-0.006967474,0.00045771,-0.013732147,-0.016703784,-0.008576926,-0.007473162,0.00087446,-0.000454376,0.008852088,0.006626718,0.005325905,-0.001153793,-0.020660076,-0.019891089,-0.017841948,-0.010423989,-0.005484273,0.00112666,-0.002713781,-0.002750598,0.001255248,-0.014488527,-0.02050702,-0.018510552,-0.011356303,-0.01003971,-0.004967921,-0.000189176,0.003133182,0.01247013,0.004581566,0.010548575,0.002237502,0.003449164,-0.003166891,-0.008963179,0.006742796,0.014725152,0.023866713,0.019723732,0.007026483,-0.005693232,-0.013022671,0.003741119,-0.010368421,-0.009006234,0.006214839,0.015064341,0.013578288,0.008607131,0.01148024,-0.005299668,-0.00788562,0.000875312,-2.70E-05,-0.003713881,0.00808408,0.017018763,0.021480052,0.024615895,0.007193738,-0.01265777,-0.01733138,-0.008338423,0.001315531,-0.000429352,2.44E-05,0.000386905,-0.001978166,-0.005583879,-0.004808129,-0.000629698,0.000380193,-0.001402308,-0.008762216,-0.00978705,-0.01531612,-0.018674685,-0.005574343,0.003882523,0.004812685,0.005740632,0.002482522,-0.005402331,-0.007547598,-0.010572653,-0.01458719,-0.01323104,-0.00498056,-0.012414961,-0.004609068,-0.014728691,-0.008325062,-0.005125139,-0.004435843,-0.008921968,-0.014605442,-0.008582885,0.004772219,0.011399982,0.002467585,-0.010192475,-0.022050349,-0.03263148,-0.037717696,-0.04115349,-0.0253427,-0.006471606,0.007060394,0.001113663,0.000396115,-0.018524233,-0.032699812,-0.031514417,-0.021365002,-0.012834262,-0.013206693,-0.02224464,-0.015092311,-0.009294394,-0.013483402,-0.007645884,-0.014317245,-0.025413737,-0.029804312,-0.03423618,-0.029827587,-0.019148184,-0.012111199,-0.01253489,-0.015580513,-0.015319409,-0.025661064,-0.024500083,-0.025580188,-0.021234924,-0.014978375,-0.0157311,-0.022350654,-0.025584076,-0.024580183,-0.025257709,-0.018779377,-0.023876073,-0.03372975,-0.03550007,-0.02979074,-0.02498466,-0.02479913,-0.025392491,-0.024323337,-0.03480418,-0.03412422,-0.0382477,-0.032573007,-0.018782891,-0.021283085,-0.01816019,-0.014927222,-0.016816644,-0.028368156,-0.03481244,-0.041995216,-0.052873157,-0.055168077,-0.055144176,-0.04131099,-0.026367756,-0.011636199,-0.012422052,-0.016068596,-0.014235552,-0.029531853,-0.050013788,-0.056689136,-0.046789777,-0.049052827,-0.03694284,-0.023105834,-0.026233,-0.023857793,-0.03509845,-0.0405386,-0.0476966,-0.05031019,-0.04669545,-0.039487403,-0.040468313,-0.029700628,-0.02531469,-0.017259315,-0.01989794,-0.041892424,-0.037979137,-0.046661966,-0.04727342,-0.039389238,-0.04080306,-0.037950303,-0.03221125,-0.028562415,-0.049657542,-0.05318389,-0.044923633,-0.05469667,-0.05107037,-0.045092918,-0.0393409,-0.041029688,-0.03460452,-0.024866272,-0.02605141,-0.041960694,-0.052976374,-0.055207442,-0.051832285,-0.03554643,-0.034805413,-0.026356023,-0.03050702,-0.036269218,-0.030345445,-0.041013274,-0.037783533,-0.034215506,-0.038906112,-0.044707015,-0.04541172,-0.043105934,-0.039250836,-0.04045667,-0.0354786,-0.040333975,-0.039536178,-0.04248924,-0.049524132,-0.04940078,-0.03914792,-0.031410035,-0.02061257,-0.023490861,-0.02244406,-0.04690215,-0.0594789,-0.06644556,-0.060698967,-0.05127434,-0.0478681,-0.037239555,-0.034685925,-0.03516052,-0.039053265,-0.035089105,-0.034927018,-0.035062023,-0.03494148,-0.030909002,-0.034815636,-0.036331378,-0.043755393,-0.04483871,-0.058801312,-0.066216104,-0.061498575,-0.05041841,-0.054092895,-0.04588403,-0.039297227,-0.040400427,-0.03988273,-0.036867995,-0.024937034,-0.02651578,-0.039683368,-0.046147767,-0.044158317,-0.050235484,-0.049319256,-0.052171364,-0.055505592,-0.054723307,-0.051233362,-0.060704477,-0.06763318,-0.06819244,-0.060032226,-0.060838707,-0.06403485,-0.058189716,-0.05153911,-0.049760226,-0.05014949,-0.056301665,-0.06023906,-0.061882965,-0.07325884,-0.07098752,-0.06298973,-0.06054571,-0.05670107,-0.05819812,-0.06066723,-0.060175024,-0.06775689,-0.07043348,-0.06640397,-0.05571251,-0.053602222,-0.05212309,-0.06746662,-0.07352246,-0.071667776,-0.068386644,-0.07229713,-0.062405128,-0.07045887,-0.081201956,-0.07168418,-0.05535851,-0.04650134,-0.044413976,-0.05448992,-0.06168452,-0.0745331,-0.083429396,-0.085714154,-0.07947521,-0.06898927,-0.06397147,-0.06639793,-0.056857686,-0.054938994,-0.061150678,-0.07673095,-0.086822204,-0.08057234,-0.080085605,-0.078341305,-0.05715458,-0.049328685,-0.04979651,-0.055442974,-0.06566144,-0.07310923,-0.07214455,-0.06995646,-0.060103122,-0.0497679,-0.0491875,-0.055998527,-0.057372727,-0.07580211,-0.07752344,-0.07998526,-0.07581436,-0.060436543,-0.069509655,-0.07605975,-0.06987318,-0.0565807,-0.069380134,-0.060902253,-0.07827838,-0.08360172,-0.079156525,-0.08047722,-0.075294025,-0.07442503,-0.06649879,-0.05318018,-0.052358687,-0.06163586,-0.069685206,-0.07932083,-0.07325969,-0.07691359,-0.07551009,-0.059868235,-0.07467062,-0.071409754,-0.069947295,-0.065916486,-0.0693719,-0.074658126,-0.09105279,-0.081755474,-0.07934464,-0.07519041,-0.07230531,-0.05810022,-0.047711346,-0.034975912,-0.04752753,-0.04756145,-0.04704941,-0.05452124,-0.054938797,-0.048262596,-0.037520763,-0.049069513,-0.056657564,-0.04954491,-0.04389344,-0.040942337,-0.046421032,-0.04410159,-0.036463592,-0.015279714,-0.003919425,-0.010103682,-0.017267365,-0.01730138,-0.037101682,-0.045754932,-0.029299283,-0.037815582,-0.031797085,-0.016070195,-0.010752365,-0.006224067,-0.008872707,-0.005394265,-0.006045884,-0.010145556,-0.012486719,-0.016057312,-0.00914838,0.006023367,0.00245374,0.001928485,0.009803241,0.004711343,-0.011903759,-0.015870454,-0.02516233,-0.010393865,0.006411746,0.015118065,0.01334043,0.009093444,0.010500236,0.014046777,0.008595727,-0.002076437,0.002146996,-0.008867588,-0.004775392,-0.000648812,0.003674442,0.013468096,0.02224098,0.035020966,0.02756824,0.00801738,-0.001858408,0.004574753,0.008813291,2.25E-05,0.010663944,0.025093323,0.020945163,0.01517516,0.008868541,0.002921531,-0.000783997,0.000566427,-0.004645247,0.000341528,0.000817049,0.009255203,0.009428405,0.015013097,0.001834104,-0.004894084,-0.006342491,0.00669288,0.010398418,0.005445093,0.010652321,0.012046667,0.016394297,0.021702994,-0.001509469,-0.014232663,-0.026405405,-0.027789144,-0.014630497,-0.014415294,-0.000609089,-0.001680506,0.005556978,-0.006258155,-0.019260695,-0.023145745,-0.019774439,-0.01046419,-0.000321897,0.011819786,0.024009267,0.01890727,0.017937986,-0.005943778,-0.018704372,-0.015987162,-0.006054698,-0.008315291,-0.01063817,-0.003331331,0.00117338,0.011030743,0.01972334,0.023609754,0.008414772,-0.004847533,-0.010816026,-0.009747284,-0.005431393,0.00114832,0.007207646,0.010497904,0.010006402,0.008763098,-0.010474367,-0.001454926,-0.002759536,-0.005880867,0.004906599,0.009814356,0.013001503,0.024598967,0.02454826,0.016722795,0.006136694,-0.007678432,-0.010955224,-0.002663551,0.006051736,0.008570258,0.006149931,0.011568134,0.005320374,0.014094011,0.008897691,0.004692892,0.002982716,-0.004804948,-0.004811946,-0.010797346,0.001931979,0.011028354,0.013151594,0.015384497,0.003092649,-0.001001597,-0.011312132,-0.016281532,-0.004795022,-0.000386876,0.002121872,0.005191265,0.008546474,0.006259969,0.010009833,0.009401841,0.013525555,0.008190225,0.003667162,-0.000807472,-0.00310838,0.010682806,0.005138463,0.010153664,0.008028638,-0.012837378,-0.016394438,-0.003856569,-0.005904943,0.00781998,0.007960559,0.000218704,-0.011287675,-0.002570461,0.013210008,0.002290074,-0.000507828,0.000382238,-0.000101819,0.005572133,0.005618387,0.014451769,0.01420426,0.02045917,0.012025743,0.00489223,0.002534652,-0.004334108,-0.000282409,0.01822827,0.025450816,0.022892034,0.015080397,0.015017638,-0.009564425,-0.010630106,-0.00700263,-0.007567582,0.004992298,-0.001459213,-0.004622811,0.00893366,0.020298675,0.015131619,0.007644771,-0.010648159,-0.015297139,-0.015207916,-0.005417184,0.006617952,0.011482685,0.018631289,0.020245578,0.014979384,-0.00300095,-0.010624094,-0.007919199,0.003314334,0.005158576,0.005848804,0.010840291,0.007545578,-0.002819782,-0.010101662,-0.003593734,0.000533692,-0.002429249,-0.009550523,-0.009753566,-0.010718991,-0.006541128,0.004004545,0.008370792,0.010782761,-0.003948402,-0.017468154,-0.021461388,-0.008689264,0.000973792,0.005446051,0.011456209,0.006423691,0.005074295,2.86E-05,-0.005324101,-0.003786616,0.004317335,-0.002233164,-0.006156168,-0.010607285,-0.015028278,-0.00294182,0.000449922,-0.008857518,-0.011461749,-0.015300639,-0.014851758,-0.015216768,-0.009965978,0.001577125,0.005327965,0.004605234,0.008703657,0.014561785,0.003495429,-0.001253545,-0.01114525,-0.016395524,-0.008872913,-0.000498678,0.002424732,0.002660816,0.002395359,0.006508486,-0.003315199,-0.010239219,-0.009947605,-0.013198283,-0.016284188,-0.012925623,-0.010819316,-0.004585173,0.005068093,-0.004307972,-0.004863147,-0.007797182,-0.020065133,-0.015797326,-0.00569375,0.013191222,0.011888132,0.011551898,-0.005256498,-0.024164557,-0.014788282,-0.014436337,-0.020333998,-0.026767913,-0.018888447,-0.009456423,-0.002408113,0.000385459,-0.000337358,0.004673644,-0.008431263,-0.021516092,-0.019482583,-0.013918805,0.005974142,0.008846427,0.012140014,-0.000852237,-0.023230614,-0.02119927,-0.018158417,-0.0165918,-0.020862905,-0.019458946,-0.024674384,-0.01892932,-0.013190828,-0.006482534,-0.007877843,-0.016264576,-0.024532402,-0.027076853,-0.030478211,-0.030013481,-0.02054137,-0.008752772,-0.011504473,-0.003985192,0.001233575,-0.009807375,-0.016098434,-0.020821732,-0.017454028,-0.007335868,-0.003911935,-0.006029371,-0.003643746,-0.008966363,-0.006107373,-0.005246707,-0.010314507,-0.019532444,-0.025827816,-0.02489555,-0.015956802,-0.014450822,-0.0056771,0.001009317,-0.000217675,-0.000917057,-0.015393779,-0.016354429,-0.021163465,-0.019200481,-0.02068566,-0.018893886,-0.012877276,-0.009328822,-0.01033417,-0.01850911,-0.021990227,-0.034299094,-0.04338964,-0.04922226,-0.036300357,-0.022627242,-0.009420098,0.003150625,-0.008983482,-0.01879814,-0.03327294,-0.03042071,-0.02663049,-0.031545933,-0.019688776,-0.014818115,-0.006305202,-0.010778751,-0.01260496,-0.009286689,-0.021029137,-0.010842348,-0.013487055,-0.014842897,-0.02002269,-0.025481679,-0.022259858,-0.007721042,-0.004565624,-0.014298301,-0.027475752,-0.026851416,-0.015199347,-0.022347612,-0.02597342,-0.01793978,-0.015324649,-0.014262139,-0.019182134,-0.011489381,-0.021630345,-0.033136543,-0.034948274,-0.035298605,-0.025821967,-0.024265446,-0.017338002,-0.015162686,-0.011027884,-0.019151358,-0.03232195,-0.043398336,-0.03981792,-0.033522815,-0.026769472,-0.018430233,-0.021287048,-0.018820003,-0.021191712,-0.018465193,-0.016941858,-0.030338805,-0.04588158,-0.036744263,-0.030023765,-0.018025445,-0.015272156,-0.014489775,-0.015586404,-0.022987543,-0.027534721,-0.027727624,-0.024831383,-0.024817703,-0.020990495,-0.018947719,-0.022520728,-0.02521803,-0.02202759,-0.017662158,-0.013325613,-0.027740551,-0.032985765,-0.035613436,-0.034368504,-0.030066252,-0.028773457,-0.021181155,-0.02002365,-0.024415156,-0.038186267,-0.04493883,-0.0479919,-0.047205135,-0.0348135,-0.029324085,-0.022535332,-0.019418962,-0.023540888,-0.034874227,-0.040676907,-0.04804009,-0.045388855,-0.034386653,-0.03596109,-0.033456124,-0.028623696,-0.021320906,-0.01673019,-0.017847273,-0.024058575,-0.037050556,-0.044040177,-0.037967984,-0.02486295,-0.018855581,-0.015435906,-0.02659811,-0.030926133,-0.024980724,-0.032188036,-0.0415167,-0.036347505,-0.038387224,-0.036044907,-0.028689569,-0.031614635,-0.023993442,-0.015599178,-0.010630026,-0.021634476,-0.024846047,-0.02748987,-0.03435269,-0.030439937,-0.017689772,-0.017016388,-0.020282935,-0.02326701,-0.026430666,-0.03432949,-0.02846943,-0.036078,-0.038036518,-0.019259645,-0.010287253,-0.009022685,-0.015662193,-0.021443043,-0.023040587,-0.02175736,-0.024855625,-0.027212912,-0.03795689,-0.04049482,-0.027065303,-0.019354684,-0.020498918,-0.016230179,-0.014861772,-0.026953923,-0.029788721,-0.030600173,-0.026042284,-0.02039964,-0.019148016,-0.01274931,-0.009325285,-0.010488537,-0.009813318,-0.022742147,-0.03184886,-0.03863562,-0.039901912,-0.04481746,-0.037298772,-0.020114696,-0.011496945,-0.009654869,-0.018791674,-0.02214091,-0.03241622,-0.039623115,-0.057766706,-0.050826777,-0.0255531,-0.012767386,-0.008410366,-0.021345852,-0.039586417,-0.04026508,-0.038328845,-0.033819284,-0.039176732,-0.044500925,-0.038515408,-0.02653354,-0.025694655,-0.02057056,-0.02137275,-0.040557995,-0.040961023,-0.04887034,-0.050122462,-0.04095282,-0.033696268,-0.03783875,-0.037629154,-0.03390895,-0.044899423,-0.05035751,-0.04860437,-0.041298166,-0.04001428,-0.039639127,-0.04092311,-0.03597589,-0.03059708,-0.044042584,-0.044958863,-0.05151421,-0.055139367,-0.05525085,-0.051426988,-0.044952568,-0.04469068,-0.037049502,-0.035368323,-0.030922566,-0.034773458,-0.047056038,-0.058348652,-0.057202104,-0.054674175,-0.050094776,-0.03813562,-0.026234576,-0.028845347,-0.022129023,-0.060227275,-0.07803992,-0.07271751,-0.077286474,-0.06639578,-0.060285244,-0.053933565,-0.046269376,-0.04009951,-0.054579604,-0.050294396,-0.061815042,-0.066266716,-0.07183912,-0.065053985,-0.061196372,-0.052026708,-0.043185357,-0.03851494,-0.04456438,-0.049639568,-0.060926836,-0.051632293,-0.06521806,-0.07026722,-0.07095139,-0.07303758,-0.061495055,-0.047880374,-0.044808365,-0.044757713,-0.05241714,-0.062031277,-0.06848831,-0.07015671,-0.061273642,-0.05204094,-0.04440353,-0.04717415,-0.05496416,-0.05446306,-0.06872026,-0.07292524,-0.07057173,-0.058991022,-0.044917226,-0.051073164,-0.057462674,-0.058210626,-0.050127055,-0.050781906,-0.060387637,-0.060393754,-0.07406306,-0.08509755,-0.088997126,-0.08459507,-0.07640352,-0.06335752,-0.059041142,-0.06529388,-0.070188046,-0.06964634,-0.07257592,-0.076195724,-0.060591973,-0.060528073,-0.056636397,-0.045816414,-0.044890996,-0.054450158,-0.073607326,-0.089407995,-0.09868409,-0.100591615,-0.08526388,-0.06258353,-0.059264556,-0.05030219,-0.05731747,-0.07472662,-0.086673476,-0.08948856,-0.07603124,-0.06805528,-0.07117446,-0.06329864,-0.06694738,-0.06050003,-0.06433299,-0.068997405,-0.07818406,-0.08499505,-0.08581039,-0.08052268,-0.080564685,-0.071326874,-0.058606844,-0.062699035,-0.06948662,-0.07433227,-0.08859008,-0.09314917,-0.090151586,-0.08264256,-0.075124584,-0.07913502,-0.064930096,-0.058786176,-0.06732171,-0.08085099,-0.09520829,-0.08646006,-0.088178925,-0.08683505,-0.07996484,-0.086374804,-0.08953669,-0.07822977,-0.07445984,-0.07532741,-0.08760453,-0.09548001,-0.097290635,-0.10118648,-0.09013569,-0.08396973,-0.07908771,-0.08278998,-0.08920408,-0.08578035,-0.08491395,-0.09453392,-0.10126001,-0.095929325,-0.09023381,-0.090014316,-0.08979967,-0.090683654,-0.08257982,-0.07507927,-0.08595359,-0.08518594,-0.096881144,-0.10381324,-0.10125391,-0.08567492,-0.073044,-0.0662489,-0.06521086,-0.069229186,-0.096821055,-0.11667564,-0.11285551,-0.09807046,-0.09455405,-0.093366496,-0.083569,-0.08580036,-0.08451631,-0.08089334,-0.07948603,-0.0803639,-0.0797562,-0.080070645,-0.0847158,-0.09005607,-0.08184982,-0.08048632,-0.075837314,-0.07579199,-0.09067274,-0.090520844,-0.10162789,-0.10603453,-0.090315364,-0.073464684,-0.076828524,-0.0685515,-0.06441594,-0.073435284,-0.0720881,-0.08228052,-0.089954495,-0.1070812,-0.11112595,-0.09532807,-0.08635511,-0.08652996,-0.0700449,-0.07994851,-0.08546195,-0.09397242,-0.104033485,-0.10183633,-0.08975443,-0.07833178,-0.06621943,-0.07019917,-0.0799344,-0.08037744,-0.09022015,-0.08172176,-0.08045776,-0.079067566,-0.09054025,-0.09934124,-0.09311827,-0.0864512,-0.08504604,-0.088527694,-0.087406196,-0.095559575,-0.09728833,-0.101086564,-0.09462166,-0.082727656,-0.07413959,-0.07298749,-0.07169564,-0.090660416,-0.0892723,-0.10960988,-0.1045,-0.092042,-0.10504342,-0.08735948,-0.085039034,-0.070242815,-0.063763514,-0.074760534,-0.08750552,-0.09693567,-0.10569746,-0.11178752,-0.099129066,-0.09044762,-0.08693212,-0.073252626,-0.06880047,-0.084707774,-0.08920452,-0.08551629,-0.094300136,-0.09154808,-0.071353555,-0.063828774,-0.067196645,-0.072689414,-0.07930639,-0.08918998,-0.10270345,-0.101306,-0.09325782,-0.09957726,-0.10360774,-0.088413656,-0.07519005,-0.0690935,-0.070415616,-0.070129,-0.081625775,-0.086178854,-0.096174635,-0.10147326,-0.08492881,-0.07506701,-0.07107456,-0.049086127,-0.0442514,-0.06312027,-0.072893426,-0.08105905,-0.076576605,-0.08136392,-0.08700436,-0.07609833,-0.07075079,-0.06629981,-0.068619795,-0.07045997,-0.07601868,-0.08177775,-0.08845461,-0.09041921,-0.080350205,-0.06214628,-0.051709283,-0.041601934,-0.06137814,-0.07440677,-0.08980384,-0.10797261,-0.11158882,-0.09495666,-0.08408083,-0.09112597,-0.08820726,-0.07939101,-0.07311382,-0.09012659,-0.094121255,-0.0890377,-0.09465323,-0.112660065,-0.10608716,-0.08656386,-0.07867202,-0.07070983,-0.07399801,-0.07944246,-0.093851686,-0.096079804,-0.09363606,-0.10292161,-0.08853451,-0.07941286,-0.06604185,-0.08303033,-0.08801352,-0.079027176,-0.08199779,-0.093237355,-0.09233243,-0.092423216,-0.10153894,-0.10207096,-0.08528341,-0.07637973,-0.074781634,-0.07066048,-0.070249915,-0.08972701,-0.11395359,-0.11109924,-0.10050089,-0.08096043,-0.06845912,-0.07509858,-0.088922895,-0.08563937,-0.09767284,-0.104372464,-0.09630496,-0.09145138,-0.084812686,-0.08533401,-0.08460007,-0.08561726,-0.08105037,-0.08386168,-0.08060026,-0.087881595,-0.08751825,-0.08729665,-0.096454844,-0.0914141,-0.07713171,-0.07447753,-0.075570315,-0.07847211,-0.08297864,-0.09001001,-0.09302359,-0.09203061,-0.08444856,-0.07274434,-0.06419338,-0.062885754,-0.061828855,-0.07648258,-0.08514884,-0.102932274,-0.108308606,-0.10067851,-0.090551466,-0.08391414,-0.077853195,-0.07240515,-0.06508287,-0.07559118,-0.09544749,-0.08683934,-0.085085124,-0.08483608,-0.084971644,-0.07925498,-0.08212733,-0.0855824,-0.084711134,-0.07633249,-0.067981675,-0.0761085,-0.088949434,-0.093967006,-0.08581505,-0.07340838,-0.06692989,-0.05533337,-0.05554134,-0.054782197,-0.06713263,-0.07034608,-0.08441403,-0.091630325,-0.07949919,-0.0632313,-0.061079763,-0.06881031,-0.06993181,-0.06635125,-0.07529544,-0.083613716,-0.07902705,-0.08385452,-0.09825544,-0.082163066,-0.056109995,-0.055045925,-0.054897234,-0.06423677,-0.07762819,-0.08843632,-0.10001498,-0.092433624,-0.0799609,-0.06836996,-0.064705655,-0.0671501,-0.074832834,-0.07478755,-0.087687194,-0.086134724,-0.07859011,-0.08399065,-0.09422798,-0.088980325,-0.083468966,-0.074102856,-0.06542672,-0.064629294,-0.067231625,-0.08569141,-0.09027325,-0.09022859,-0.084657796,-0.074763924,-0.07270044,-0.057311334,-0.05513414,-0.058705173,-0.06262033,-0.0717236,-0.0792506,-0.072622545,-0.06925795,-0.06298588,-0.056097604,-0.07365888,-0.07067654,-0.07080642,-0.080587864,-0.087965906,-0.08767475,-0.080825895,-0.075083226,-0.07508947,-0.06380643,-0.052846506,-0.05956028,-0.06908663,-0.08331577,-0.10012406,-0.10198138,-0.0781028,-0.069650315,-0.06524681,-0.07198496,-0.06353969,-0.059366394,-0.0685471,-0.066882275,-0.07770615,-0.082502596,-0.08958434,-0.08935942,-0.07915233,-0.071456,-0.060486015,-0.063799314,-0.06966156,-0.071313046,-0.08492721,-0.09099057,-0.08629972,-0.07916734,-0.06372422,-0.058890697,-0.06547575,-0.0748232,-0.07943648,-0.07994499,-0.08187044,-0.08345568,-0.07821128,-0.086001724,-0.083207116,-0.07897357,-0.070721515,-0.07074886,-0.06413562,-0.061935253,-0.07350242,-0.08887983,-0.10384853,-0.096153535,-0.08134844,-0.06583471,-0.05570507,-0.05861389,-0.069634065,-0.08251998,-0.09233325,-0.09597814,-0.090832956,-0.085589245,-0.083907045,-0.07821186,-0.071616694,-0.0694819,-0.07525901,-0.07872238,-0.0675443,-0.07644339,-0.08408378,-0.08973706,-0.084462725,-0.08465041,-0.072988614,-0.069643006,-0.07468806,-0.08725912,-0.0891105,-0.093699224,-0.09140775,-0.08517621,-0.07837523,-0.07513818,-0.074257374,-0.07935823,-0.071256384,-0.088099554,-0.09340525,-0.09176865,-0.09638884,-0.08908587,-0.07322412,-0.07155689,-0.07566416,-0.07801442,-0.08529975,-0.07887449,-0.08248294,-0.085232995,-0.0850666,-0.080256075,-0.074228235,-0.07712804,-0.080564864,-0.0797396,-0.07573183,-0.07494027,-0.084387995,-0.09329266,-0.09909357,-0.09566943,-0.088368006,-0.084939994,-0.08291394,-0.07498918,-0.08902938,-0.0896162,-0.09353086,-0.10169328,-0.098992,-0.09183294,-0.08247112,-0.07980103,-0.067506194,-0.0684765,-0.074946396,-0.08092056,-0.077471584,-0.07666429,-0.0913403,-0.101671785,-0.1025699,-0.09188898,-0.07731814,-0.07871151,-0.07166946,-0.08758537,-0.095194176,-0.09961098,-0.11384361,-0.11512566,-0.10146594,-0.088435926,-0.091049895,-0.08595155,-0.076251745,-0.092671275,-0.099302106,-0.09327633,-0.09954656,-0.108799726,-0.1168391,-0.10945964,-0.091349944,-0.068993926,-0.05499924,-0.061122287,-0.06805048,-0.08210093,-0.085521586,-0.08442365,-0.07312106,-0.06175202,-0.062476844,-0.06587951,-0.06914698,-0.089550234,-0.10063572,-0.10013205,-0.09649126,-0.0852713,-0.07943633,-0.08059616,-0.07913476,-0.084280394,-0.08076215,-0.09185372,-0.09327283,-0.08937763,-0.09014566,-0.09441924,-0.08832263,-0.07694628,-0.07499757,-0.07180439,-0.06411789,-0.06812036,-0.08414108,-0.096780956,-0.097322255,-0.08919002,-0.085215636,-0.08392814,-0.073662505,-0.06903815,-0.075134575,-0.08763286,-0.094501644,-0.08607173,-0.084700994,-0.09448153,-0.09296249,-0.07461912,-0.06672785,-0.06778777,-0.06316341,-0.08173706,-0.101149715,-0.105060734,-0.10198428,-0.10267125,-0.09484382,-0.07866609,-0.07610085,-0.06666551,-0.06131584,-0.07641923,-0.08813146,-0.076449476,-0.09007704,-0.091190085,-0.07918048,-0.07758657,-0.06506407,-0.06559876,-0.06907893,-0.07674778,-0.08132024,-0.08875766,-0.09017332,-0.085086614,-0.073413126,-0.06844771,-0.06324703,-0.073255174,-0.07511288,-0.07596264,-0.080448076,-0.08184895,-0.090116456,-0.084316276,-0.068051316,-0.056826424,-0.0552973,-0.05421074,-0.06546453,-0.0816985,-0.09407229,-0.089064196,-0.08443092,-0.075418845,-0.06460398,-0.06323618,-0.061668664,-0.06641847,-0.06393835,-0.05971526,-0.06439897,-0.08113997,-0.074776314,-0.089207314,-0.089569755,-0.08117315,-0.07115647,-0.066427834,-0.06872108,-0.071189426,-0.078474276,-0.08723345,-0.0799552,-0.07647923,-0.07888668,-0.072550155,-0.073939405,-0.08639122,-0.07875783,-0.082225494,-0.08527629,-0.0974632,-0.096627355,-0.08538488,-0.07950947,-0.078138426,-0.061741285,-0.060832895,-0.06290439,-0.07566477,-0.09096541,-0.090015665,-0.08962775,-0.09016512,-0.07127592,-0.06575008,-0.061123133,-0.063965924,-0.07352571,-0.08343853,-0.07934353,-0.082866535,-0.0887227,-0.074349985,-0.07483424,-0.068638824,-0.07120821,-0.065598786,-0.06962141,-0.075948246,-0.07240865,-0.072238795,-0.076044776,-0.07408296,-0.069776505,-0.060951855,-0.051106144,-0.04984973,-0.063499585,-0.08531029,-0.09108636,-0.071878165,-0.06998103,-0.06996922,-0.062890954,-0.05375444,-0.055814583,-0.054235924,-0.06467253,-0.07116426,-0.07568627,-0.074308366,-0.07890677,-0.088810295,-0.07931569,-0.08247782,-0.081052735,-0.06532477,-0.06634447,-0.08139247,-0.094086714,-0.08955556,-0.07733428,-0.059245892,-0.04676698,-0.06462681,-0.061515093,-0.05993789,-0.060083218,-0.07277541,-0.07940612,-0.07265238,-0.086980455,-0.09072718,-0.082944006,-0.07084127,-0.0611763,-0.059743956,-0.06476836,-0.07158841,-0.08483679,-0.09081782,-0.08979167,-0.085125,-0.07360713,-0.06785354,-0.066435285,-0.075239964,-0.06988237,-0.070347086,-0.07054848,-0.081754506,-0.085678935,-0.0843298,-0.08026267,-0.07806766,-0.07646539,-0.08204773,-0.06933426,-0.08495617,-0.09228626,-0.08256319,-0.09347198,-0.08613198,-0.071982615,-0.06403972,-0.06991671,-0.080792084,-0.07022785,-0.08917461,-0.090952694,-0.086516164,-0.09134075,-0.08043931,-0.07952786,-0.08229359,-0.08134393,-0.061854783,-0.060193725,-0.07203382,-0.08293332,-0.08509427,-0.08518315,-0.075641006,-0.062313728,-0.05386016,-0.0581184,-0.060452577,-0.07269738,-0.071009845,-0.06879381,-0.07357863,-0.07483429,-0.07555932,-0.0669922,-0.06031462,-0.0543188,-0.05209605,-0.05260419,-0.059701502,-0.06833698,-0.069577895,-0.07068862,-0.0647353,-0.065812245,-0.06260504,-0.059838936,-0.059708,-0.060971577,-0.07046116,-0.07824702,-0.07687361,-0.078507476,-0.07061648,-0.05410975,-0.06341234,-0.06682841,-0.07216989,-0.06284345,-0.07096737,-0.0817303,-0.06318881,-0.07715538,-0.08065242,-0.07281511,-0.062133122,-0.061646763,-0.07349256,-0.066665806,-0.07654891,-0.088095404,-0.09038194,-0.08331907,-0.06901308,-0.072406806,-0.07237812,-0.0728161,-0.07189988,-0.065454625,-0.07540005,-0.076164626,-0.0832696,-0.092248894,-0.1006343,-0.09228622,-0.07222959,-0.051914696,-0.04986834,-0.067928135,-0.08407989,-0.09903126,-0.107306235,-0.09643195,-0.09459248,-0.07626881,-0.06322235,-0.07051067,-0.080200285,-0.070813864,-0.08225113,-0.09244269,-0.0959255,-0.09084167,-0.085681826,-0.08315593,-0.0719713,-0.070156,-0.06629098,-0.06509219,-0.08276441,-0.092256315,-0.095762715,-0.09446697,-0.086635195,-0.07685103,-0.06945233,-0.07235118,-0.07661572,-0.059911806,-0.062469643,-0.07048487,-0.07214805,-0.07952422,-0.08018054,-0.08576103,-0.08166358,-0.07061133,-0.07036531,-0.069581404,-0.077720836,-0.09650161,-0.10782721,-0.09282457,-0.07633134,-0.07213332,-0.05595545,-0.05996365,-0.0736036,-0.07999389,-0.085878246,-0.09262691,-0.09284508,-0.088987485,-0.08591239,-0.07923078,-0.078015804,-0.06426248,-0.06682874,-0.067101836,-0.081519455,-0.09474376,-0.09900088,-0.09247577,-0.08945538,-0.083234884,-0.07096302,-0.062489677,-0.07416259,-0.06974715,-0.084365584,-0.08498557,-0.08745528,-0.09413847,-0.074390605,-0.07620836,-0.08246864,-0.08110791,-0.065323636,-0.06637741,-0.08028775,-0.080672115,-0.091893345,-0.09207039,-0.08494093,-0.09067312,-0.08834716,-0.081458576,-0.07998685,-0.07522257,-0.08259849,-0.08810078,-0.07434452,-0.08296325,-0.085762285,-0.08356862,-0.080032215,-0.07733686,-0.07439201,-0.0579467,-0.06553379,-0.08032941,-0.08766825,-0.09452832,-0.09063049,-0.08840823,-0.07674451,-0.07502835,-0.07795798,-0.08635237,-0.09443658,-0.097070254,-0.100901954,-0.09292447,-0.083649084,-0.0811823,-0.07697962,-0.07779017,-0.080302745,-0.08047473,-0.084527425,-0.088324085,-0.09919807,-0.100072406,-0.095095925,-0.08329628,-0.07996076,-0.07791581,-0.07001523,-0.07537297,-0.07993558,-0.090358816,-0.0905888,-0.07970014,-0.07575486,-0.07555756,-0.07987297,-0.068470255,-0.060438506,-0.0694848,-0.08138416,-0.08747268,-0.087385274,-0.09412372,-0.10817419,-0.0992632,-0.08247581,-0.078981966,-0.081106655,-0.07454333,-0.08882176,-0.091765545,-0.08285499,-0.093266696,-0.082081676,-0.07238542,-0.071928486,-0.07785333,-0.081161626,-0.07009156,-0.07705371,-0.07789678,-0.07676424,-0.084829345,-0.08026071,-0.08022013,-0.07832143,-0.07384773,-0.07907713,-0.08083436,-0.090236366,-0.091086276,-0.09879335,-0.100247085,-0.09056266,-0.07783284,-0.06537827,-0.061428405,-0.063365154,-0.074884064,-0.08654455,-0.0909632,-0.08227397,-0.07491035,-0.08061464,-0.07081553,-0.06057588,-0.06857962,-0.07062704,-0.065076955,-0.07806503,-0.084944256,-0.08791002,-0.09042636,-0.08548713,-0.077665396,-0.067643896,-0.063943274,-0.06930501,-0.07026841,-0.08136672,-0.07785587,-0.087533124,-0.07950385,-0.06891175,-0.07072079,-0.06931749,-0.07277604,-0.07597559,-0.082543306,-0.088937484,-0.09163763,-0.08153327,-0.07555694,-0.0846358,-0.08222903,-0.068090856,-0.070917696,-0.0726011,-0.081069045,-0.078403786,-0.0846928,-0.087047525,-0.06001262,-0.03506328,-0.023675764,-0.019833973,-0.04009834,-0.084688775,-0.10836088,-0.10007894,-0.09907579,-0.08648553,-0.077262245,-0.08745168,-0.09261939,-0.089622125,-0.062153816,-0.06543511,-0.01801543,-0.006493495,-0.033630617,-0.06369385,-0.09722233,-0.08585423,-0.07368995,-0.055917062,-0.028766708,-0.020795777,-0.025083724,-0.05489963,-0.07623315,-0.08852697,-0.06571824,-0.031357013,-0.029846577,-0.041294355,-0.07107883,-0.085839465,-0.08476145,-0.095815755,-0.08596734,-0.088265345,-0.09326496,-0.10522227,-0.1032435,-0.07585512,-0.017532032,-0.014476589,0.012634278,-0.025448909,-0.074515514,-0.0893096,-0.11831202,-0.110039316,-0.07951504,-0.05269268,-0.041022144,-0.036894288,-0.028921833,-0.03256713,-0.03173441,-0.039246857,-0.07080564,-0.098864734,-0.10583765,-0.1023697,-0.08376184,-0.055339135,-0.038282916,-0.05234265,-0.10012288,-0.13752778,-0.1874184,-0.23847191,-0.24367763,-0.19283086,-0.08340899,-0.08679048,0.010776952,0.020966424,-0.044472575,-0.074323796,-0.08266345,-0.07712335,-0.058245014,-0.04103865,-0.054813858,-0.06763158,-0.07617317,-0.08564686,-0.090941556,-0.092710435,-0.12396557,-0.15429273,-0.16091062,-0.15602718,-0.12979966,-0.10704974,-0.09906253,-0.09145843,-0.10263529,-0.11017,-0.117229104,-0.09474572,-0.05795331,-0.020735225,-0.012767904,-0.004803053,-0.028012782,-0.044134405,-0.055899844,-0.058693215,-0.07804479,-0.089329295,-0.09588288,-0.094488405,-0.09166662,-0.068093054,-0.04698275,-0.050548464,-0.07540313,-0.08564272,-0.08872073,-0.08539483,-0.07286738,-0.06091207,-0.049322017,-0.036231928,-0.04031438,-0.0630407,-0.08334764,-0.11708399,-0.12700836,-0.118824735,-0.11634643,-0.108398736,-0.08609243,-0.08614016,-0.07410538,-0.07330621,-0.086227715,-0.0868446,-0.09147742,-0.084473446,-0.0852465,-0.07543497,-0.06668856,-0.06420676,-0.0704967,-0.081612766,-0.09360968,-0.09212934,-0.08945334,-0.094584286,-0.088569604,-0.07519886,-0.06880713,-0.074118815,-0.07960131,-0.08777662,-0.10479812,-0.115553595,-0.12533589,-0.1237237,-0.11445312,-0.09662319,-0.07803398,-0.07010989,-0.1065135,-0.13643947,-0.15210241,-0.15868588,-0.15677974,-0.1450136,-0.13280602,-0.12311154,-0.13292624,-0.14970776,-0.13998744,-0.12138,-0.08648805,-0.064037554,-0.069179356,-0.079935506,-0.10322301,-0.111721545,-0.11690782,-0.103317946,-0.09468525,-0.10119963,-0.10888888,-0.13366045,-0.14115286,-0.14379714,-0.13254584,-0.11509044,-0.10428494,-0.09808737,-0.11530045,-0.12562346,-0.13380134,-0.14440288,-0.13816431,-0.1239952,-0.10821906,-0.09683129,-0.0949926,-0.09792509,-0.11078892,-0.12024295,-0.12878785,-0.12232066,-0.10885556,-0.115677826,-0.11430863,-0.12581766,-0.12509064,-0.11831867,-0.12517004,-0.11980852,-0.12731169,-0.11825187,-0.114714764,-0.114367545,-0.11156886,-0.12291978,-0.12740745,-0.1316521,-0.11020725,-0.10687603,-0.11585401,-0.11869506,-0.13818087,-0.13996942,-0.13352758,-0.120288916,-0.11335238,-0.12604673,-0.14535585,-0.15677334,-0.16715336,-0.15883602,-0.15059993,-0.15393808,-0.14282872,-0.12403002,-0.12201903,-0.12963013,-0.1341058,-0.15107471,-0.18173985,-0.18581846,-0.16810292,-0.13287571,-0.11980126,-0.10672474,-0.13067043,-0.12644763,-0.1576415,-0.15705664,-0.14646865,-0.15979074,-0.16614638,-0.18583255,-0.18792152,-0.16580665,-0.13447155,-0.10837589,-0.08701461,-0.10824369,-0.13309671,-0.14040968,-0.14366427,-0.14900859,-0.13374913,-0.12873709,-0.13591997,-0.14096248,-0.14015874,-0.15056257,-0.15103063,-0.1569023,-0.1469521,-0.13074616,-0.10373911,-0.08420422,-0.11012788,-0.10759992,-0.14921296,-0.17692082,-0.18153456,-0.16911651,-0.15681449,-0.14063436,-0.1216986,-0.11478642,-0.11451428,-0.122025564,-0.13571732,-0.14617625,-0.16044354,-0.16312982,-0.15555453,-0.15842181,-0.13730133,-0.11939752,-0.11509379,-0.11077076,-0.12018075,-0.1411369,-0.13981123,-0.13552512,-0.124228306,-0.12168803,-0.12539218,-0.13968925,-0.13600755,-0.13579999,-0.12515244,-0.14562908,-0.15842997,-0.14457841,-0.1494642,-0.14507657,-0.13327725,-0.13012418,-0.12745799,-0.12380574,-0.13565557,-0.15719552,-0.15748131,-0.14087783,-0.12319107,-0.10516514,-0.1057393,-0.10225396,-0.10451895,-0.11563985,-0.11432049,-0.13619545,-0.16928576,-0.18891901,-0.20756544,-0.2011197,-0.17465444,-0.14202538,-0.08867532,-0.08688475,-0.055218257,-0.060724746,-0.08100875,-0.09156638,-0.114196695,-0.12331704,-0.14446308,-0.12695235,-0.10688578,-0.11449525,-0.12529546,-0.15316197,-0.1628929,-0.17940263,-0.1900902,-0.18959518,-0.18264407,-0.155878,-0.15116516,-0.13778515,-0.13639064,-0.15206113,-0.12010836,-0.099336974,-0.07274006,-0.06934286,-0.07818607,-0.093024075,-0.09776777,-0.10051416,-0.113517866,-0.12760492,-0.14029947,-0.15360424,-0.13734905,-0.116836935,-0.108552024,-0.13469364,-0.18269408,-0.20941752,-0.19862801,-0.14037332,-0.079551026,-0.023746608,0.00126235,-0.01649045,-0.053292364,-0.060545675,-0.05967778,-0.06305561,-0.09005923,-0.14289676,-0.17259769,-0.19865401,-0.20033713,-0.15462154,-0.09561398,-0.046224564,-0.032168414,-0.020797769,-0.09672428,-0.13217743,-0.108471595,-0.068965286,-0.042891238,-0.04522843,-0.0874459,-0.12730919,-0.16297142,-0.19597118,-0.21428183,-0.19393548,-0.12917672,-0.058756948,-0.03173955,-0.024548288,-0.028365241,-0.06438405,-0.119918205,-0.17050107,-0.17956638,-0.13444155,-0.058977455,0.018031435,0.06394894,0.05446972,0.017582726,-0.04185561,-0.1032954,-0.11392049,-0.121240586,-0.14204688,-0.16318248,-0.1414466,-0.07366356,-0.023958836,-0.05061594,-0.1343681,-0.20867723,-0.23051292,-0.20860797,-0.13909073,-0.062397186,-0.002023781,0.01272082,0.011311876,-0.038215134,-0.11084035,-0.15223531,-0.16856611,-0.15707998,-0.08347314,0.05162329,0.14990321,0.16227382,0.07839775,-0.02326927,-0.09889528,-0.028509393,-0.045534015,0.04447763,-0.002996037,-0.1015288,-0.1252989,-0.10779327,-0.06881306,-0.033812832,0.020194184,0.099926464,0.2016558,0.28448388,0.24762279,0.17465475,0.1455614,0.16238749,0.17890295,0.1675811,0.14846693,0.13628675,0.17189252,0.25159803,0.3093767,0.3240017,0.33750665,0.36820322,0.38722312,0.37198174,0.32915822,0.3138146,0.30870712,0.27993056,0.24626713,0.27666673,0.37841013,0.45102853,0.43457356,0.37361,0.39128715,0.4767195,0.53444755,0.5491749,0.512192,0.4436454,0.37641057,0.35845274,0.3855074,0.44382942,0.48851043,0.5179555,0.5841311,0.6858518,0.7303593,0.60150915,0.4131271,0.24347344,0.2364488,0.38482895,0.6148037,0.81514823,0.8479486,0.7021307,0.46928564,0.33680966,0.41517508,0.5760821,0.6889886,0.6202862,0.44561496,0.34988943,0.46998304,0.7116766,0.91477585,0.9709801,0.91737133,0.79493225,0.7027295,0.64925903,0.6524113,0.6289808,0.5552399,0.42157897,0.3233717,0.39863023,0.5417411,0.671307,0.76663876,0.78114706,0.69447815,0.6267011,0.6083236,0.6738554,0.71399313,0.7100645,0.7127578,0.8035137,0.971439,1.0850356,1.1016841,1.0055692,0.8738098,0.7672924,0.7386129,0.7740547,0.8433447,0.82866794,0.69409055,0.47755796,0.3643989,0.4017536,0.5630152,0.6959005,0.76558346,0.78965175,0.83371484,0.93882775,1.1003375,1.1822263,1.1833571,1.0796628,1.0907853,0.8989541,0.8184148,0.8543375,0.9191402,1.0012021,0.99988824,0.9106275,0.76334614,0.6436695,0.6087728,0.64583975,0.7146454,0.7758694,0.80966103,0.80615824,0.8055361,0.89099216,1.0324091,1.1757619,1.209805,1.1238233,1.007438,0.9434535,0.9205103,0.9287884,0.9751229,0.99253154,1.0118994,0.9572585,0.9724752,0.819352,0.77754843,0.84735763,0.894145,0.903023,0.848157,0.84967434,0.95141983,1.1015762,1.1925141,1.2027137,1.0966256,0.9921152,0.92266226,0.92373586,0.9704832,1.0082561,1.0148116,0.9818418,0.95533967,0.99218726,1.0404873,1.0751458,1.0739824,1.0759555,1.0864,1.0840237,1.0818512,1.044608,1.0531895,0.9497876,0.8554184,0.8027623,0.8218167,0.88664216,0.97957116,1.0688472,1.1540753,1.2056355,1.1906168,1.1304315,1.0341526,0.9472683,0.904755,0.9329584,0.9948951,1.0676494,1.0826243,1.0753119,1.0263255,0.98141223,0.93283796,0.91692424,0.90702707,0.91265047,0.9163734,0.94301116,0.9552911,0.98134625,0.971937,1.0382656,1.0373964,0.99785036,0.96733844,0.9157834,0.89527583,0.8830351,0.8921192,0.9148248,0.93487245,0.9645134,0.95750505,0.9365177,0.9016146,0.8665491,0.83383745,0.8142104,0.8072061,0.8053327,0.80082625,0.81398654,0.8395528,0.8511275,0.84575534,0.82057375,0.79914623,0.7822527,0.7661908,0.7654296,0.7647431,0.74275833,0.712457,0.6937107,0.69536275,0.694894,0.6949413,0.68826115,0.6760652,0.6616083,0.64585817,0.6356318,0.6103245,0.5974688,0.57752424,0.56460834,0.5696473,0.5635251,0.55040926,0.5400043,0.51946944,0.49469346,0.46576056,0.45301673,0.4440537,0.43885133,0.43609673,0.4285407,0.43191475,0.4232129,0.42318502,0.40389943,0.40198052,0.39300013,0.38711375,0.37761953,0.36465245,0.36005813,0.35978183,0.36205745,0.37325776,0.3707446,0.35629845,0.3322671,0.3242405,0.32168046,0.32413742,0.33727896,0.3387502,0.32910714,0.32051662,0.31440178,0.2930718,0.28851214,0.28357473,0.28934315,0.29472417,0.30067667,0.29854134,0.28901684,0.2837943,0.28124374,0.27984366,0.287148,0.2771559,0.25355658,0.26221734,0.25954425,0.24715212,0.2544515,0.25753456,0.26176322,0.24526888,0.24318983,0.23975764,0.22710149,0.21909511,0.22221354,0.22277243,0.22014232,0.21599242,0.21546774,0.22587335,0.23271847,0.23290604,0.22560571,0.2201227,0.2146386,0.21418147,0.20550916,0.20931315,0.1877897,0.19655713,0.20542498,0.19328704,0.18241315,0.17939919,0.19855283,0.20521232,0.20314504,0.19183473,0.17144427,0.1569716,0.14792237,0.14424442,0.1422909,0.13858889,0.14764233,0.14979352,0.16493222,0.17403275,0.17626385,0.17152485,0.15629885,0.14265245,0.14353153,0.14036854,0.1359228,0.14872143,0.14919654,0.15448488,0.13246201,0.12266041,0.120392755,0.11769637,0.10696199,0.11348948,0.12842721,0.13445847,0.12148138,0.109091304,0.124216184,0.118909016,0.11305383,0.10902026,0.110775694,0.105392896,0.12292863,0.13186038,0.13659094,0.1271578,0.11019541,0.087578066,0.09418681,0.090319216,0.10475184,0.11171221,0.10270274,0.09944446,0.08788758,0.08829253,0.0684754,0.056231625,0.060605507,0.0767583,0.0845419,0.080109306,0.0682546,0.06516394,0.062314406,0.0593352,0.05946318,0.030667994,0.017661013,0.013732536,0.02269558,0.034559775,0.028822647,0.024498804,0.025328832,0.021877088,0.004150446,-0.028575735,-0.045166496,-0.048212294,-0.043934815,-0.03618186,-0.01627531,0.002001665,0.023768814,0.024503145,0.007389932,-0.021557247,-0.036741722,-0.04397331,-0.044733807,-0.032046422,-0.016076634,-0.022048509,-0.047109306,-0.06813076,-0.07885069,-0.08080539,-0.068324186,-0.05625454,-0.054187704,-0.061175887,-0.082373545,-0.102356285,-0.111157045,-0.10963574,-0.09655196,-0.067720525,-0.040906034,-0.058355458,-0.09159053,-0.09005645,-0.05349974,-0.020376682,-0.00378982,0.006011365,-0.05588288,-0.11593846,-0.16627969,-0.20373721,-0.19765064,-0.16585048,-0.12365239,-0.09779775,-0.11283414,-0.1746261,-0.21202746,-0.2267029,-0.19484353,-0.15709355,-0.13632229,-0.15363291,-0.16787742,-0.1595522,-0.10414579,-0.11844334,-0.19084261,-0.2835047,-0.3169356,-0.295061,-0.24346775,-0.19124933,-0.14917858,-0.14782585,-0.13823307,-0.15481326,-0.06666797,-0.010958028,0.006793395,-0.002723427,-0.02585965,-0.036967374,-0.044109836,-0.042373996,0.027183674,0.13190517,0.20528084,0.13607109,0.033671807,-0.08065541,-0.09538464,0.024702037,0.23456316,0.37134865,0.40955716,0.33062434,0.23109522,0.17841752,0.23846585,0.31415045,0.3199558,0.16708167,0.021166742,-0.038903542,0.111755535,0.085448705,0.39544973,0.5235638,0.4693233,0.38138834,0.28224385,0.27247462,0.3239356,0.4034436,0.47195446,0.5467999,0.6369471,0.6465639,0.56295145,0.43605193,0.3737123,0.43652946,0.593367,0.6735328,0.6418005,0.5197671,0.439105,0.42660785,0.45179576,0.5021237,0.59995675,0.7057673,0.74949753,0.77121246,0.7051541,0.72167176,0.4834351,0.36699995,0.43964517,0.58569485,0.7210914,0.78160197,0.7787321,0.7194551,0.6740905,0.64424115,0.6212553,0.59937894,0.5705945,0.54750854,0.6034545,0.7005869,0.76570237,0.777299,0.7727966,0.73075074,0.66793597,0.55892,0.4833576,0.45573273,0.440669,0.394429,0.39457425,0.44774395,0.5943958,0.58650446,0.72924274,0.70211667,0.56257105,0.5044115,0.5455398,0.6935195,0.7991934,0.828023,0.7875526,0.7604874,0.7794203,0.77481824,0.7146626,0.5855964,0.46457908,0.4320341,0.52904284,0.6913515,0.8008684,0.7809118,0.65565455,0.51117474,0.4220033,0.38827944,0.44133258,0.5876642,0.7247492,0.836984,0.8796223,0.90328246,0.80441356,0.70183706,0.6133029,0.53271407,0.4362486,0.40746853,0.49867257,0.67326355,0.8332484,0.87661713,0.84305704,0.74101216,0.6707387,0.57532847,0.48305157,0.41789955,0.40835428,0.5074482,0.7057107,0.89794016,0.9957743,1.007436,0.9110304,0.7730213,0.638584,0.5633971,0.56152016,0.64118135,0.786112,0.7900379,0.8516668,0.79370654,0.6918664,0.6658959,0.64489067,0.69314194,0.777887,0.8786075,0.91704017,0.90200114,0.8421501,0.72993255,0.6412097,0.6042297,0.6603094,0.755665,0.832428,0.8567588,0.8647613,0.8543381,0.8281179,0.7372788,0.5981357,0.45805925,0.39220765,0.4549147,0.6292988,0.8035646,0.8980637,0.9066375,0.94586796,0.91988564,0.81742525,0.67720664,0.5227479,0.4152069,0.40570903,0.49721652,0.7168477,0.9794095,1.1792096,1.1759715,1.0472085,0.8495289,0.6764748,0.588032,0.5647198,0.6073163,0.6376881,0.6855405,0.7535686,0.8566176,0.9615638,0.97276944,0.8969479,0.8131401,0.76104975,0.74640083,0.74796426,0.7501614,0.75509036,0.7668711,0.7902785,0.8132678,0.809411,0.755747,0.7037195,0.6925217,0.7804864,0.91133547,0.9906249,0.9604671,0.85595304,0.74864835,0.69673324,0.7292316,0.82208616,0.88907105,0.90444946,0.85402685,0.76905906,0.68210274,0.6269876,0.60844254,0.6414333,0.72576135,0.81507415,0.87533087,0.8747923,0.8840243,0.8310247,0.7739673,0.7265393,0.7395581,0.76902854,0.8224203,0.8334628,0.84300953,0.7968356,0.70545226,0.5786275,0.5192878,0.5572782,0.7101862,0.8556871,0.9283547,0.91866004,0.8573093,0.77966887,0.7208181,0.6852383,0.65026957,0.63989574,0.6552024,0.69523454,0.7417706,0.76599866,0.7808998,0.7842305,0.7902333,0.7483858,0.7252122,0.7030369,0.69137734,0.68597037,0.68474543,0.6791792,0.6816232,0.67183614,0.65019387,0.6169993,0.54789567,0.51786584,0.54223734,0.6134792,0.68010783,0.7242197,0.73903924,0.72865236,0.6861411,0.65444034,0.62119406,0.6051404,0.60131717,0.6069793,0.59407884,0.5846173,0.57711595,0.5750122,0.57485753,0.5661029,0.5446691,0.5282824,0.5313307,0.52230966,0.5189572,0.5216203,0.52501065,0.52555776,0.51793116,0.49574056,0.48144335,0.45739716,0.44837397,0.4576185,0.469784,0.46320993,0.44985822,0.42978662,0.42095727,0.40936607,0.38903847,0.38873476,0.36675912,0.35849398,0.36063907,0.35374808,0.3576344,0.35996807,0.36061394,0.34088296,0.31544304,0.29353318,0.27666387,0.2537816,0.24872905,0.25149158,0.2556182,0.25217792,0.24932715,0.23734272,0.2252936,0.20431177,0.183027,0.16559447,0.16076082,0.15254043,0.14187188,0.12554005,0.1152824,0.10571616,0.09240437,0.08274566,0.07554755,0.053739455,0.04931428,0.055558063,0.05610014,0.061549954,0.058577668,0.06602588,0.05518276,0.0379477,0.041786674,0.02862488,0.018709756,0.009338803,0.003825647,0.006284215,0.000248091,0.005238595,0.003211159,0.002102753,0.001113721,-0.014646527,-0.013444359,0.005880184,0.002955781,-0.002449654,-0.015976477,-0.044957153,-0.08106677,-0.10534733,-0.110553406,-0.068674795,-0.002846251,0.03256763,0.047780074,0.025039287,0.027809912,-0.023820044,-0.05075653,-0.053297468,-0.05934318,-0.055699293,-0.06884674,-0.0756068,-0.07582471,-0.08425157,-0.08139727,-0.066155575,-0.057902448,-0.056708775,-0.06094669,-0.05616765,-0.04990019,-0.050990857,-0.056606676,-0.06578583,-0.07468555,-0.08410064,-0.10556306,-0.143512,-0.18359162,-0.17824706,-0.11461604,-0.051113255,-0.008746819,0.002477576,0.014197615,-0.04416722,-0.089835525,-0.11287101,-0.11403244,-0.0974755,-0.094498865,-0.08876456,-0.08472171,-0.08478317,-0.08863927,-0.099109,-0.10238311,-0.12132471,-0.13915572,-0.14753476,-0.12810475,-0.091256805,-0.06698764,-0.061305128,-0.072980456,-0.08564082,-0.10793951,-0.12554331,-0.12965436,-0.1407235,-0.15114431,-0.14237492,-0.13142782,-0.12055611,-0.120418966,-0.13258165,-0.14432432,-0.14513853,-0.12980689,-0.1309603,-0.11561022,-0.10900379,-0.10347543,-0.1129026,-0.12941894,-0.13399366,-0.136541,-0.1410058,-0.15326129,-0.17238015,-0.18911871,-0.18405764,-0.17754643,-0.15587737,-0.13098826,-0.12634382,-0.14255442,-0.15919799,-0.15714458,-0.14786544,-0.13889216,-0.1410068,-0.12914659,-0.12585092,-0.11955405,-0.16655654,-0.19506651,-0.21708982,-0.22466543,-0.204969,-0.16065495,-0.11910478,-0.09295385,-0.099512324,-0.12721564,-0.14083235,-0.1678533,-0.17748119,-0.18014996,-0.18349704,-0.18580453,-0.19673415,-0.19813336,-0.19536729,-0.1810091,-0.16303144,-0.15525319,-0.15745115,-0.17179203,-0.18583506,-0.19650958,-0.18613784,-0.17186384,-0.17241114,-0.17548546,-0.20672107,-0.2411681,-0.23910265,-0.2217998,-0.19887653,-0.16229118,-0.14066356,-0.1377241,-0.15576628,-0.1822189,-0.2027568,-0.20133092,-0.19603539,-0.1877984,-0.20479609,-0.229895,-0.22322656,-0.22013836,-0.21802445,-0.20344208,-0.19458185,-0.20019744,-0.19296369,-0.20062006,-0.21963494,-0.23708849,-0.23669748,-0.21832839,-0.19323538,-0.19051565,-0.17979132,-0.17628902,-0.19092035,-0.20486268,-0.20741984,-0.21229818,-0.20601776,-0.20200452,-0.20716694,-0.21535316,-0.20533241,-0.22368568,-0.21906696,-0.22311263,-0.22857629,-0.20983204,-0.20392163,-0.2005636,-0.21100529,-0.22308533,-0.22614686,-0.23495983,-0.22465758,-0.20546094,-0.19466953,-0.19612889,-0.1989561,-0.2038733,-0.21363518,-0.21562636,-0.21442345,-0.23609681,-0.258529,-0.26107398,-0.24576783,-0.21900892,-0.19697714,-0.18225227,-0.19346672,-0.21215856,-0.2340943,-0.24734592,-0.24773672,-0.24885295,-0.26487842,-0.26255012,-0.22678632,-0.20891882,-0.19298501,-0.18898578,-0.20485364,-0.22847596,-0.24577169,-0.26228172,-0.2686422,-0.27538145,-0.2665326,-0.24057458,-0.21083286,-0.20398177,-0.20562048,-0.21763177,-0.23513782,-0.24283066,-0.25257733,-0.26051566,-0.25998294,-0.28089827,-0.3169803,-0.32779342,-0.29478008,-0.24736792,-0.19976395,-0.18265568,-0.18907791,-0.20487386,-0.22700778,-0.23254955,-0.24731483,-0.25349644,-0.2609477,-0.2700146,-0.27008513,-0.27002123,-0.2668328,-0.25916925,-0.26290098,-0.27976033,-0.2885248,-0.29055375,-0.27568534,-0.25018352,-0.2289389,-0.21412635,-0.22981596,-0.26383215,-0.2775392,-0.27654845,-0.26625496,-0.2611722,-0.2639687,-0.2668997,-0.28921214,-0.30179536,-0.30250838,-0.30206543,-0.29782423,-0.29504648,-0.29720575,-0.29850638,-0.27343786,-0.24954468,-0.25010186,-0.24983639,-0.25339067,-0.25607842,-0.26014715,-0.2680102,-0.26986822,-0.270299,-0.27855396,-0.2944654,-0.3055271,-0.30716547,-0.31464845,-0.3054735,-0.28035334,-0.26977924,-0.2652642,-0.25440243,-0.25615346,-0.2597107,-0.27001807,-0.27525976,-0.27862456,-0.28460342,-0.28640658,-0.28870553,-0.283852,-0.288695,-0.3007274,-0.32088378,-0.31993288,-0.31558815,-0.30102238,-0.2905195,-0.27929068,-0.2895416,-0.30077073,-0.3067142,-0.3080505,-0.31828475,-0.31593236,-0.30490318,-0.28744847,-0.28446358,-0.27885655,-0.27515373,-0.29093185,-0.31344795,-0.32828322,-0.33087945,-0.31864193,-0.30364415,-0.29525498,-0.29101512,-0.29543293,-0.30140465,-0.29838327,-0.30810457,-0.3152658,-0.32607943,-0.32265204,-0.3191263,-0.33033448,-0.34679866,-0.3475192,-0.33462033,-0.3044607,-0.30430478,-0.28164342,-0.28229684,-0.29833657,-0.30423707,-0.32273045,-0.32572487,-0.32988468,-0.31931975,-0.30524305,-0.30229536,-0.28998503,-0.30883047,-0.31483233,-0.3344799,-0.35499176,-0.3545532,-0.35561234,-0.3513011,-0.32442996,-0.3054072,-0.30557847,-0.3167834,-0.32838213,-0.3273362,-0.32438764,-0.32487816,-0.3208948,-0.33475918,-0.3456608,-0.3519748,-0.33909842,-0.32945,-0.3236625,-0.32623878,-0.32372022,-0.32627472,-0.3171735,-0.31658855,-0.31036118,-0.3178558,-0.32912925,-0.3377308,-0.34769708,-0.36489046,-0.37736073,-0.3911324,-0.3857684,-0.3621962,-0.3241399,-0.31711802,-0.3252843,-0.33985642,-0.37763646,-0.40925032,-0.41589475,-0.41072938,-0.4220589,-0.441414,-0.44370598,-0.4539939,-0.4233114,-0.4460314,-0.47261044,-0.45504186,-0.43840882,-0.43384448,-0.44164255,-0.43379676,-0.38228533,-0.30164108,-0.22722778,-0.19650891,-0.21057716,-0.26734084,-0.3246703,-0.35341674,-0.3547657,-0.33882117,-0.3391282,-0.36357132,-0.39722714,-0.4382155,-0.4556776,-0.45596808,-0.43788683,-0.40592438,-0.35580784,-0.31238788,-0.2808432,-0.27359775,-0.28955272,-0.30167502,-0.30525926,-0.30609238,-0.33184582,-0.37978572,-0.3899818,-0.39040637,-0.38769785,-0.37686625,-0.38452235,-0.42718858,-0.45015436,-0.47258222,-0.48915276,-0.4659353,-0.37019682,-0.27124554,-0.19349636,-0.19443953,-0.25650766,-0.33241647,-0.3841357,-0.36529288,-0.33197123,-0.31260377,-0.35438246,-0.43190616,-0.48441398,-0.49366763,-0.49190313,-0.45247653,-0.4115814,-0.40707317,-0.38928783,-0.3867203,-0.35967866,-0.3813231,-0.4373692,-0.47919035,-0.46246552,-0.39608112,-0.3353246,-0.32698375,-0.37179416,-0.41094458,-0.40952125,-0.36472616,-0.33139938,-0.3071106,-0.27702403,-0.26270798,-0.2717356,-0.273413,-0.23912688,-0.24999878,-0.3419282,-0.49998114,-0.5623787,-0.602988,-0.34906158,-0.16216992,-0.092099994,-0.10392552,-0.18118982,-0.26788065,-0.31686234,-0.31850207,-0.27628437,-0.22807662,-0.18088214,-0.19646901,-0.24970265,-0.3210683,-0.3144388,-0.23199712,-0.16595441,-0.17032523,-0.16816416,-0.1534145,-0.1615074,-0.18220979,-0.17903876,-0.13088736,-0.03743417,-0.000497392,-0.07268093,-0.17945921,-0.18445039,-0.2059083,-0.08511942,-0.03280688,-0.06080286,-0.095708534,-0.09697647,-0.005281492,0.11123737,0.16890144,0.06911606,-0.13276501,-0.31154358,-0.32094917,-0.18553057,-0.036992375,0.004781535,-0.03333588,-0.06784511,-0.035107125,0.04463921,0.09364283,0.09452577,0.048810333,-0.023596702,-0.09804903,-0.14341426,-0.13970144,-0.109475456,-0.066375375,0.016979411,0.014584589,0.13112418,0.1924281,0.15628031,0.013716172,-0.18052688,-0.33265808,-0.35815775,-0.28511283,-0.14998388,-0.014780551,0.13241498,0.25945848,0.3256385,0.25251043,0.04731013,-0.15781154,-0.23894702,-0.13044189,0.062841736,0.19152375,0.17029959,0.050648678,-0.08830684,-0.08920841,-0.044261035,-0.004070616,-0.005247309,0.023059694,0.07256425,0.08969744,0.075503565,0.041419838,-0.007582664,-0.038457405,-0.0658036,-0.07869732,-0.032876164,0.07998382,0.14853415,0.14067376,0.08156722,0.08016492,0.14815482,0.23457488,0.25629425,0.22186348,0.13656217,0.038731012,-0.07283075,-0.1440233,-0.14247541,-0.029453129,0.13617496,0.23236108,0.2379674,0.14827421,0.05070967,-0.01387932,-0.005952183,-0.018064488,0.04824577,0.08070846,0.09904088,0.15208782,0.19374748,0.26563448,0.2693981,0.21787234,0.09461407,-0.010629819,-0.044653587,-0.011567808,0.034806564,0.10706687,0.17050472,0.19033071,0.2120444,0.2159121,0.2269489,0.21546605,0.11864409,-0.025245123,-0.08679488,-0.02526673,0.15413547,0.3457995,0.41687328,0.3498157,0.17800824,0.17543773,0.051405426,0.005635924,0.006652161,0.0199937,0.109219335,0.2398336,0.32045066,0.2893247,0.17002393,0.045993317,-0.039077282,-0.07725494,-0.05069833,0.005950364,0.081943214,0.16896482,0.25382093,0.3051866,0.28029624,0.12047781,-0.0687442,-0.1421306,-0.001668743,0.17086849,0.24383731,0.21294749,0.13427366,0.048228838,0.01508285,0.004400712,0.014980016,0.042512074,0.09878809,0.1764041,0.2772101,0.33665293,0.30262282,0.22691143,0.15954003,0.10291173,0.04802438,0.046036616,0.08933452,0.15090588,0.18749575,0.16552597,0.09193258,0.05134145,0.092606604,0.17015819,0.18637083,0.114125684,0.06281684,0.07742971,0.11263968,0.12287669,0.14983664,0.19945568,0.25323755,0.25965676,0.2609579,0.19752397,0.12658101,0.09922326,0.09832766,0.08036181,0.01508314,-0.013210888,0.041567046,0.1426301,0.18622182,0.09454914,0.025409251,0.04497846,0.11278761,0.15284626,0.15649714,0.16260353,0.17804074,0.17282385,0.15600947,0.13893513,0.10830948,0.10550389,0.14515084,0.23160103,0.29912436,0.34444553,0.3270582,0.33484113,0.26970637,0.22047499,0.1660614,0.12064456,0.09496201,0.13495663,0.21930538,0.33365557,0.41111547,0.37398067,0.27784637,0.17044346,0.15301476,0.17334013,0.2314984,0.27766195,0.29345798,0.29272527,0.30240324,0.3012874,0.28644195,0.2501619,0.20202054,0.16892992,0.1474416,0.1490315,0.19678612,0.27086097,0.35534018,0.36471555,0.3529499,0.27876106,0.20544766,0.19961874,0.21366008,0.236169,0.22033261,0.2123834,0.26595658,0.33932337,0.3712626,0.34711874,0.31080574,0.26915166,0.23300923,0.2208479,0.21956323,0.23101377,0.24664661,0.25458238,0.24998496,0.23173966,0.21447493,0.19488299,0.18896097,0.19049567,0.19670624,0.20771609,0.21286018,0.21565102,0.20607324,0.18861574,0.16115747,0.16778424,0.1592766,0.16108721,0.14655288,0.14861599,0.14453185,0.13229612,0.119488224,0.114695996,0.097159706,0.09013459,0.07924954,0.06431783,0.06684741,0.07831167,0.07765859,0.06772589,0.04915566,0.021369379,-0.00377483,-0.023880983,-0.04267359,-0.049689345,-0.05057701,-0.04976579,-0.06543211,-0.06651085,-0.09641232,-0.11350195,-0.12336493,-0.133999,-0.14168455,-0.1515657,-0.16075496,-0.17614196,-0.1959484,-0.21888281,-0.22808018,-0.23243257,-0.22277671,-0.21851219,-0.23415272,-0.24478377,-0.26784837,-0.26873595,-0.27704763,-0.3112054,-0.3477302,-0.3545334,-0.31954032,-0.2896515,-0.26687768,-0.26026928,-0.27290606,-0.29087517,-0.3076734,-0.30953503,-0.33333465,-0.34088936,-0.35028133,-0.36684552,-0.37802175,-0.37095276,-0.34521395,-0.32402742,-0.3279094,-0.36866525,-0.41295183,-0.42624152,-0.40213746,-0.3582934,-0.323854,-0.30955398,-0.30665228,-0.3284256,-0.34966955,-0.36024857,-0.35881752,-0.35059646,-0.3574331,-0.36049083,-0.35969457,-0.35602653,-0.35288215,-0.34332898,-0.34881905,-0.3492315,-0.39148596,-0.42109177,-0.43727788,-0.4230813,-0.38113,-0.35058707,-0.3380887,-0.33765498,-0.37258893,-0.41637212,-0.43771812,-0.4162784,-0.38394302,-0.35773075,-0.34043753,-0.3407763,-0.35161495,-0.3631858,-0.36667842,-0.38167256,-0.40017822,-0.41003594,-0.41466624,-0.44751203,-0.45663965,-0.4307941,-0.38065737,-0.3496323,-0.33913583,-0.3332715,-0.36346862,-0.39009094,-0.40963137,-0.4204665,-0.43684337,-0.44987145,-0.43617907,-0.4012622,-0.36303738,-0.34254736,-0.34458503,-0.38114357,-0.39906377,-0.42615297,-0.44035056,-0.4443931,-0.4443225,-0.42643118,-0.3935265,-0.3730012,-0.3591244,-0.37101394,-0.4025696,-0.41869563,-0.42754012,-0.41368783,-0.41236174,-0.42401713,-0.44934115,-0.4484771,-0.48264578,-0.4560708,-0.37850317,-0.32002744,-0.31709826,-0.3498265,-0.39096618,-0.41712442,-0.42926306,-0.42657804,-0.41576007,-0.42647156,-0.4312101,-0.44113564,-0.44944763,-0.4457608,-0.43012592,-0.40223226,-0.39153817,-0.38618603,-0.38025194,-0.3929281,-0.41076022,-0.4298314,-0.436507,-0.42930797,-0.42481333,-0.41667333,-0.41793513,-0.41990727,-0.45237148,-0.49211776,-0.49189812,-0.44139,-0.37545922,-0.32543847,-0.3280035,-0.3545254,-0.38785598,-0.4176621,-0.4250422,-0.43747553,-0.44638,-0.43977332,-0.42645603,-0.4201681,-0.4201529,-0.41842893,-0.41370103,-0.41932765,-0.4158988,-0.4198311,-0.42154616,-0.4263279,-0.42068964,-0.4153703,-0.40866652,-0.40314284,-0.3989821,-0.40073657,-0.42109123,-0.4363799,-0.44946635,-0.43955746,-0.4259657,-0.4300157,-0.4214246,-0.4098212,-0.42117152,-0.43615657,-0.45997822,-0.47026452,-0.45945418,-0.43944365,-0.4025897,-0.3699797,-0.37082806,-0.37954286,-0.40028736,-0.41251406,-0.42587066,-0.44176638,-0.45241392,-0.4431547,-0.43993104,-0.43886867,-0.4304212,-0.4158637,-0.39109218,-0.39031586,-0.3988698,-0.41338006,-0.43097737,-0.44509122,-0.44086075,-0.43951634,-0.4281349,-0.41556907,-0.4084968,-0.41433808,-0.4236397,-0.4206682,-0.42891628,-0.4368146,-0.43041566,-0.42568314,-0.4250705,-0.43297252,-0.43510756,-0.4318851,-0.42408016,-0.42061058,-0.41894767,-0.42515182,-0.44169664,-0.45580372,-0.4653573,-0.4615542,-0.43580994,-0.43272647,-0.41811475,-0.39985847,-0.40175915,-0.4229296,-0.43185312,-0.4367749,-0.42631167,-0.42039952,-0.41858783,-0.4313694,-0.45391455,-0.45534244,-0.44395533,-0.42882413,-0.41339543,-0.39602864,-0.41229495,-0.42365426,-0.43648443,-0.44440544,-0.44485465,-0.43986323,-0.4368642,-0.41209945,-0.4251595,-0.42596868,-0.4159522,-0.43526706,-0.43099746,-0.43039677,-0.42073607,-0.41235363,-0.40677536,-0.42058194,-0.41841602,-0.43065506,-0.42794907,-0.42578223,-0.4215938,-0.41999304,-0.41572136,-0.43344474,-0.44808128,-0.45019993,-0.4500423,-0.44470313,-0.42193657,-0.41307035,-0.40869945,-0.41439062,-0.41952926,-0.42601225,-0.42370057,-0.43029344,-0.44678646,-0.45117173,-0.44342327,-0.4466237,-0.44309247,-0.44764245,-0.41017598,-0.39611313,-0.39909482,-0.40977028,-0.44048434,-0.45619062,-0.4577199,-0.44638988,-0.41442582,-0.3851293,-0.38651064,-0.4071999,-0.4184174,-0.43414924,-0.44517884,-0.44029427,-0.43942758,-0.43137577,-0.4203371,-0.4270869,-0.44513968,-0.45503035,-0.44621986,-0.43128785,-0.42529505,-0.45258784,-0.4681556,-0.47487706,-0.4647829,-0.46753114,-0.42514554,-0.42798865,-0.46484166,-0.47651562,-0.49312693,-0.46287024,-0.40733337,-0.36432755,-0.3833138,-0.43579096,-0.48462245,-0.47491664,-0.4365241,-0.39479744,-0.37593535,-0.38342133,-0.40800288,-0.4523134,-0.47242355,-0.47551832,-0.46571022,-0.45157933,-0.43577364,-0.42398396,-0.41204304,-0.40455607,-0.39920473,-0.40954188,-0.47398582,-0.47371244,-0.5594173,-0.6049307,-0.5895711,-0.5255398,-0.45055956,-0.39132628,-0.35975444,-0.34186047,-0.35992843,-0.40734464,-0.46359506,-0.5133902,-0.55082947,-0.5736576,-0.5683876,-0.53483105,-0.47569045,-0.43304795,-0.4191016,-0.48536906,-0.5750987,-0.6061128,-0.5276946,-0.44120347,-0.42459327,-0.46394002,-0.46328172,-0.39154515,-0.26771906,-0.25602946,-0.2661701,-0.32815954,-0.39241916,-0.45876375,-0.5517504,-0.6050273,-0.5813344,-0.50574946,-0.4002897,-0.30306366,-0.23712382,-0.24632622,-0.25086898,-0.24259181,-0.23402312,-0.27013308,-0.33976728,-0.36861882,-0.35662553,-0.3251163,-0.2979208,-0.28522313,-0.3401819,-0.39851144,-0.4313446,-0.36736557,-0.25499868,-0.18884924,-0.18582538,-0.17736766,-0.2002725,-0.20967978,-0.2133735,-0.22329856,-0.24493673,-0.2887729,-0.30030036,-0.2879826,-0.24608159,-0.19846886,-0.15006217,-0.14062726,-0.15173292,-0.20905611,-0.26169163,-0.3174041,-0.3851541,-0.3926575,-0.3190283,-0.18882906,-0.103326306,-0.072728775,-0.118645765,-0.18379852,-0.23835185,-0.2571695,-0.24105188,-0.19253373,-0.16995747,-0.1638776,-0.17853637,-0.19570628,-0.20726547,-0.1841688,-0.17235112,-0.1689257,-0.17200752,-0.19510476,-0.21801294,-0.22686575,-0.23236066,-0.25189614,-0.2598684,-0.23079112,-0.17926362,-0.13440971,-0.11375848,-0.12050177,-0.1532222,-0.1853828,-0.2103582,-0.24042462,-0.29119292,-0.37079638,-0.42992556,-0.3989431,-0.26749367,-0.09903026,-0.015929488,0.005706698,-0.09971391,-0.21821563,-0.2893964,-0.29521394,-0.32333386,-0.3241846,-0.30600804,-0.26373276,-0.21814568,-0.18715493,-0.1758349,-0.1684676,-0.17497078,-0.1966216,-0.22132663,-0.24046098,-0.26989958,-0.29967645,-0.30892682,-0.26869717,-0.2287378,-0.19806953,-0.20516224,-0.22780323,-0.27505785,-0.32532918,-0.35328886,-0.3569651,-0.33310255,-0.33103535,-0.30075207,-0.27104902,-0.23278916,-0.18808912,-0.18536273,-0.19816107,-0.21959394,-0.22161987,-0.20886783,-0.20297903,-0.22562888,-0.25322634,-0.2808676,-0.30238587,-0.31254223,-0.3240675,-0.3016628,-0.28351438,-0.2523617,-0.21885948,-0.20977081,-0.22283506,-0.24402332,-0.2938506,-0.35597354,-0.3724188,-0.31234762,-0.2195901,-0.16591594,-0.15575957,-0.15900984,-0.19568999,-0.24608956,-0.26599777,-0.27853414,-0.30269393,-0.3311034,-0.3241572,-0.27495944,-0.23814955,-0.22573581,-0.2246758,-0.23486577,-0.24262343,-0.24990892,-0.24979822,-0.29755515,-0.374486,-0.4371374,-0.38824245,-0.25630045,-0.13089766,-0.08061496,-0.09327434,-0.16067928,-0.230682,-0.27577794,-0.29167914,-0.30463415,-0.3031248,-0.38906306,-0.4675876,-0.46751577,-0.36757293,-0.21471786,-0.0732452,-0.012277667,-0.035230525,-0.13331737,-0.23325068,-0.29698706,-0.30745113,-0.29978257,-0.29494277,-0.29434606,-0.30019844,-0.27880344,-0.24505176,-0.21557947,-0.21563433,-0.24545749,-0.27938136,-0.29145297,-0.2830942,-0.25769165,-0.2551055,-0.2750227,-0.30807778,-0.29256943,-0.3031456,-0.2055482,-0.16022754,-0.16394676,-0.19721256,-0.23775968,-0.28488135,-0.3248909,-0.33422264,-0.30778527,-0.27415937,-0.24580503,-0.23323019,-0.21950167,-0.22267863,-0.26698157,-0.30987146,-0.31057242,-0.26250207,-0.22486736,-0.22275732,-0.23488903,-0.25577495,-0.28807068,-0.30140126,-0.29657477,-0.26281744,-0.24584231,-0.24334773,-0.251383,-0.2556654,-0.25489813,-0.2613748,-0.2649692,-0.271155,-0.29809442,-0.28527805,-0.25541767,-0.23516515,-0.24459945,-0.2791648,-0.30898866,-0.28286237,-0.22372487,-0.17605168,-0.16880235,-0.19001545,-0.2509843,-0.30852932,-0.37269288,-0.40788496,-0.41510367,-0.3856256,-0.30451813,-0.20366947,-0.10523587,-0.056491356,-0.06986307,-0.13205262,-0.21930821,-0.22122724,-0.2986759,-0.31823555,-0.26758036,-0.2141548,-0.1671923,-0.16126612,-0.16016613,-0.18532977,-0.20017727,-0.21455346,-0.20962662,-0.21761832,-0.21701773,-0.21999402,-0.23016377,-0.22888559,-0.20692433,-0.18988492,-0.1859163,-0.20199002,-0.21987253,-0.23080032,-0.22847535,-0.22046566,-0.23712793,-0.2628158,-0.2746011,-0.26756564,-0.21125706,-0.21829341,-0.1511461,-0.14719442,-0.1782801,-0.19694297,-0.23250037,-0.24366802,-0.24554847,-0.22428146,-0.20264614,-0.1924787,-0.18464586,-0.19233298,-0.21428378,-0.24167177,-0.24514885,-0.23632064,-0.22713305,-0.21817441,-0.21306616,-0.22676474,-0.23966439,-0.2409236,-0.2468182,-0.25354227,-0.25496334,-0.26022515,-0.2705444,-0.26967824,-0.27022702,-0.2698267,-0.2700258,-0.2636571,-0.2595444,-0.2619415,-0.27658683,-0.2816329,-0.2838054,-0.27716804,-0.2608028,-0.2463451,-0.24507856,-0.2569997,-0.26942614,-0.27625787,-0.274336,-0.27026463,-0.24717091,-0.25593626,-0.25505832,-0.2450729,-0.2406759,-0.23959854,-0.24048811,-0.23890811,-0.25104815,-0.2609387,-0.26036197,-0.2755862,-0.28249514,-0.28651837,-0.29622945,-0.29812,-0.27550006,-0.24613528,-0.24173936,-0.22582266,-0.21866763,-0.22405271,-0.23330915,-0.23919699,-0.24438767,-0.2523744,-0.2513376,-0.24360344,-0.24573371,-0.24026723,-0.23864833,-0.22628617,-0.22797179,-0.23022237,-0.23542151,-0.25708562,-0.2612894,-0.26658604,-0.26349977,-0.26693094,-0.27474856,-0.26803386,-0.2060866,-0.20634751,-0.14715351,-0.14068282,-0.17770539,-0.20126149,-0.22017758,-0.2190359,-0.21452107,-0.2089911,-0.20883836,-0.19605452,-0.19967355,-0.20641729,-0.20905182,-0.20304471,-0.21320322,-0.2200504,-0.22524549,-0.21422185,-0.19804993,-0.19093724,-0.18493451,-0.18700643,-0.20616831,-0.2075046,-0.20432258,-0.20516226,-0.19883719,-0.19294126,-0.18918492,-0.19062218,-0.197962,-0.20313467,-0.21000299,-0.21288198,-0.21240641,-0.19936456,-0.19618946,-0.19942237,-0.18871038,-0.18049328,-0.18448754,-0.19153179,-0.19530539,-0.1946617,-0.19866352,-0.1958944,-0.18230698,-0.18238857,-0.18487799,-0.18876183,-0.19487691,-0.20101899,-0.19716299,-0.19775543,-0.19715802,-0.18973008,-0.19605623,-0.19245125,-0.19195414,-0.19671683,-0.18839736,-0.19524026,-0.20878208,-0.19423167,-0.19980378,-0.19486071,-0.18982624,-0.19030407,-0.18746173,-0.18381159,-0.19521019,-0.20663303,-0.21881784,-0.21479438,-0.2049777,-0.2051191,-0.19875145,-0.19314238,-0.18871999,-0.19449033,-0.19054024,-0.20292756,-0.22064213,-0.23857723,-0.22584514,-0.20858686,-0.20417061,-0.18047847,-0.16380587,-0.15463136,-0.16972159,-0.17428681,-0.18096097,-0.20830779,-0.22682111,-0.2362464,-0.23824751,-0.22487907,-0.20304984,-0.1820943,-0.17947534,-0.17369978,-0.17201482,-0.18778828,-0.18985008,-0.18619059,-0.18310301,-0.18047309,-0.1785478,-0.19171757,-0.19520813,-0.18534295,-0.19946985,-0.19634107,-0.19545896,-0.18482217,-0.174844,-0.17435746,-0.18038243,-0.18673497,-0.1748762,-0.17586134,-0.18347496,-0.19425203,-0.19799148,-0.20132199,-0.18511824,-0.17617989,-0.18102206,-0.17622438,-0.16580054,-0.17667939,-0.18055424,-0.1945544,-0.19799253,-0.18455334,-0.18570434,-0.18320715,-0.1765847,-0.17780183,-0.18622157,-0.19526643,-0.20327793,-0.20215237,-0.19978279,-0.1946226,-0.1792197,-0.1792837,-0.17086253,-0.17018886,-0.17435226,-0.18106662,-0.17883785,-0.18168108,-0.17140661,-0.1837585,-0.19028479,-0.18072467,-0.17136772,-0.16655314,-0.14683108,-0.16274871,-0.18005235,-0.1862024,-0.18084446,-0.17091152,-0.16315347,-0.15920578,-0.14818956,-0.14462289,-0.14933734,-0.16460982,-0.18431067,-0.19719009,-0.19035879,-0.1685768,-0.1604616,-0.15951775,-0.16046081,-0.15954152,-0.16467057,-0.15931241,-0.16201115,-0.16755325,-0.17790379,-0.18074925,-0.17903577,-0.17176513,-0.1582398,-0.1509473,-0.14927404,-0.15237951,-0.17185074,-0.18231586,-0.17154707,-0.1699293,-0.16958764,-0.17197914,-0.17563318,-0.17467065,-0.17940058,-0.1747137,-0.176404,-0.18368742,-0.18497026,-0.18969272,-0.18245971,-0.16492042,-0.15673974,-0.15429142,-0.1648096,-0.18359666,-0.19782591,-0.2028579,-0.20279276,-0.17551939,-0.15695466,-0.1407839,-0.14528759,-0.1581852,-0.16965893,-0.17028105,-0.17844723,-0.1749203,-0.16496216,-0.16517012,-0.16510616,-0.16351917,-0.15683216,-0.1508,-0.15077208,-0.17256898,-0.18279094,-0.18286107,-0.17885834,-0.17195918,-0.1623659,-0.17276162,-0.19260044,-0.19569542,-0.18095833,-0.17365523,-0.16814138,-0.16358858,-0.17285031,-0.17582344,-0.18036905,-0.17698123,-0.16516544,-0.16910467,-0.16135325,-0.1593393,-0.1716748,-0.18133229,-0.1828435,-0.18970206,-0.16674507,-0.15810029,-0.15421864,-0.14922436,-0.13303337,-0.13949567,-0.15136144,-0.16172883,-0.16523829,-0.16559112,-0.16256423,-0.15521143,-0.16648798,-0.17127696,-0.15984383,-0.16205806,-0.1723488,-0.17814006,-0.18057854,-0.17476825,-0.15670641,-0.1406422,-0.12902462,-0.12003849,-0.12964113,-0.14198327,-0.15465713,-0.15901026,-0.14942978,-0.15126833,-0.1472721,-0.1382529,-0.13122511,-0.13024125,-0.13335282,-0.12548403,-0.1240666,-0.12842399,-0.12988113,-0.13521193,-0.13941374,-0.13179693,-0.11776494,-0.11498804,-0.10970593,-0.10639118,-0.119298585,-0.1290723,-0.12953031,-0.1353912,-0.12611789,-0.11466208,-0.10802714,-0.09000234,-0.09071466,-0.09662499,-0.11744164,-0.12876593,-0.12713476,-0.11486746,-0.114688076,-0.09747513,-0.08918965,-0.089893885,-0.095598236,-0.1181367,-0.13428983,-0.12910248,-0.12428519,-0.115493014,-0.09858215,-0.10097347,-0.099371314,-0.09732178,-0.10150871,-0.098275036,-0.10480564,-0.10957923,-0.12743884,-0.13026497,-0.111386046,-0.09556579,-0.08812776,-0.097973965,-0.11423899,-0.12718277,-0.1295342,-0.13105865,-0.122272685,-0.11083111,-0.120928235,-0.11643478,-0.10619989,-0.098286144,-0.088254854,-0.08749418,-0.09728803,-0.100724205,-0.102497995,-0.111585476,-0.106075786,-0.09278821,-0.08650107,-0.08488721,-0.09374301,-0.10232517,-0.10416323,-0.10678238,-0.0931079,-0.080470234,-0.07313134,-0.082501926,-0.10058945,-0.09586055,-0.09442662,-0.08962153,-0.08169112,-0.08479077,-0.09851181,-0.10944003,-0.10261378,-0.084626324,-0.079080276,-0.08393721,-0.08984152,-0.096847735,-0.10830328,-0.105830476,-0.08724251,-0.08017154,-0.07988759,-0.07904262,-0.07081051,-0.07059888,-0.06467154,-0.072912954,-0.08014224,-0.080894426,-0.07212219,-0.06974198,-0.06911302,-0.06342314,-0.05571531,-0.062352665,-0.07457802,-0.0822592,-0.081121586,-0.0761994,-0.081657164,-0.07436475,-0.06923318,-0.0642994,-0.064953014,-0.07186153,-0.080629304,-0.074420586,-0.08285915,-0.07053711,-0.06353225,-0.075074166,-0.07954529,-0.07265207,-0.06714854,-0.06403587,-0.06598848,-0.06348246,-0.070568815,-0.08496967,-0.0811144,-0.0751314,-0.07522597,-0.07267685,-0.05335772,-0.03189827,-0.025973067,-0.04835166,-0.06434729,-0.07597538,-0.0849155,-0.084003605,-0.068570875,-0.06457116,-0.06530157,-0.06468219,-0.06124728,-0.06431731,-0.06721362,-0.07033604,-0.07020742,-0.06023066,-0.049328726,-0.050135814,-0.05229944,-0.056197267,-0.049836777,-0.056370605,-0.06284237,-0.07549253,-0.06687061,-0.060134687,-0.04706319,-0.039686676,-0.039563525,-0.044076733,-0.03606869,-0.02822323,-0.026753277,-0.047584176,-0.060463514,-0.055128135,-0.05467228,-0.045058176,-0.024871128,-0.015531542,-0.014750348,-0.022542099,-0.042470247,-0.06595941,-0.070384994,-0.06588286,-0.056223582,-0.044043504,-0.042944822,-0.03867022,-0.04578086,-0.05600785,-0.06084152,-0.05751715,-0.047180094,-0.044074304,-0.039331138,-0.034048982,-0.035694215,-0.03441208,-0.027112365,-0.035596404,-0.05077492,-0.054699376,-0.059242316,-0.054783564,-0.037427057,-0.017728524,-0.010522786,-0.027038531,-0.040759273,-0.05615536,-0.061522443,-0.051670697,-0.042575095,-0.04709979,-0.041099876,-0.026421966,-0.012943287,-0.009601906,-0.023228155,-0.04041091,-0.056212883,-0.056883916,-0.061601777,-0.040910486,-0.03363549,-0.02965484,-0.028144972,-0.019881887,-0.01711861,-0.03691934,-0.057734117,-0.06575254,-0.06512211,-0.055391565,-0.04258153,-0.022617675,-0.014026837,-0.014889388,-0.021162672,-0.04665038,-0.052257378,-0.05299243,-0.049038377,-0.045346096,-0.028356194,-0.03151688,-0.026420834,-0.02469275,-0.03875311,-0.0459714,-0.04444828,-0.043459456,-0.03163724,-0.016270727,-0.021522682,-0.031542018,-0.031035433,-0.040686846,-0.04718585,-0.040763356,-0.030760681,-0.03390404,-0.031092824,-0.02998541,-0.029413566,-0.021139016,-0.013193386,-0.01643097,-0.017868204,-0.023138523,-0.032581285,-0.047936793,-0.049420744,-0.046725586,-0.035559963,-0.023347331,-0.015790492,-0.015887866,-0.017899895,-0.036918886,-0.045518864,-0.030383257,-0.026479801,-0.024747983,-0.023734815,-0.010363745,-0.003346464,-0.009968577,0.00405406,-0.0016698,-0.003980041,-0.013201752,-0.025489094,-0.028863737,-0.024434427,-0.017916037,-0.011557546,-0.013026748,-0.020654231,-0.024908924,-0.025085159,-0.024913104,-0.025191376,-0.015735384,-0.009214668,-0.009771232,0.002138614,0.005101751,0.001190494,-0.002593891,-0.011697502,-0.019308576,-0.012567808,-0.009197124,-0.003910389,0.000125542,0.002570946,0.005762938,0.008757178,-0.002166006,-0.020734603,-0.025270218,-0.025185324,-0.015498227,-0.003174187,0.000221076,-0.002125906,-0.009862464,-0.005292482,-0.010824806,-0.008679625,-0.014172187,-0.007625387,-2.97E-05,-0.005472997,-0.003580866,0.003771124,0.004850736,0.005339531,-0.009055487,-0.019770399,-0.010899609,-0.010187241,0.003629691,0.01143403,0.008089359,0.016786674,0.017001316,-0.003200375,-0.006665812,-0.001000119,-0.008582699,-0.013472825,0.005214436,0.010889423,0.015648967,0.014884314,0.011678553,0.008783782,-0.000719815,-0.008167822,-0.022544922,-0.018339407,-0.008944173,-0.004849422,0.004004806,0.014085788,0.014659643,0.01578093,0.006058399,-0.005584721,-0.00794737,-0.003639657,0.001975499,0.01102957,0.023511188,0.02511103,0.0184002,0.004248657,0.006148265,0.002486491,-0.000406578,0.003459727,0.014485646,0.016473021,0.027442206,0.018441936,0.01129189,0.007884163,-0.009505659,-0.002915995,0.003407132,0.002051593,-0.009765436,-0.004241859,-0.005201412,0.010159627,0.012201049,0.022370782,0.019858614,0.003193878,-0.011251492,-0.019713918,-0.01976467,-0.01346425,-0.000694677,0.010883615,0.020068273,0.014157708,-0.013197369,-0.0093341,0.002022406,0.002117215,0.00686048,0.003740178,0.014869872,0.008321906,0.004959271,0.008213568,0.001045631,-0.003262688,0.00039957,0.006270166,0.000269044,0.005078372,0.00650765,0.011124276,0.009093289,0.015145407,0.001089749,-0.010023763,-0.000530709,-0.000628317,0.001177528,0.003440333,0.001162064,0.008678669,0.007148418,-0.009748878,-0.009249007,-0.012617816,-0.012795831,-0.005753074,-0.004645756,-0.011569481,-0.005199839,-0.000299864,0.01114553,0.015311221,-0.008066882,-0.0178314,-0.015188092,-0.011280187,-0.017361095,0.001034285,0.017143555,0.023540676,0.025277084,0.006994922,-0.008788635,-0.013722293,-0.006378228,-0.008138254,-0.002057211,0.007789714,0.008910418,0.011737531,0.00151269,0.003850509,-0.01814749,-0.015069844,-0.014459474,-0.022146214,-0.013300799,0.006920346,0.018051092,0.018390505,0.003219355,-0.005516556,-0.005115327,-0.012948118,-0.015042989,-0.012203707,0.00561646,0.013376476,0.002425386,-0.00310423,-0.005207715,-0.018744638,-0.025242912,-0.017251201,-0.012198038,-0.012424562,-0.016605316,-0.006602762,0.001171475,0.009493351,0.005751002,0.013852531,0.002382352,-0.015192259,-0.020878792,-0.01946178,-0.01577267,-0.002321869,-0.002400813,-0.004865395,-0.008767438,-0.01482514,-0.021962544,-0.03302889,-0.03300233,-0.025279338,-0.020672033,-0.013669857,-0.017790772,-0.019770045,-0.02077412,-0.009756914,-0.006515265,-0.019153928,-0.02931224,-0.026247574,-0.02420698,-0.007322053,0.000808778,-0.002209457,-0.013165127,-0.015688276,-0.027172895,-0.036529705,-0.029720373,-0.016511485,-0.009377196,0.011713146,-0.003156646,-0.005426286,0.001756307,-0.005587319,-0.017741654,-0.03350349,-0.037078552,-0.041830946,-0.024280991,-0.009866212,-0.008636273,-0.001501811,0.000480664,-0.009497953,-0.0226068,-0.03113543,-0.027212333,-0.017796373,0.00011089,-0.002360811,-0.01052528,-0.012515766,-0.012502379,-0.013034449,-0.023031522,-0.022315897,-0.020375801,-0.015980227,-0.014928933,-0.014471947,-0.006258297,0.004030511,0.008211438,0.011009565,-0.004107194,-0.019181779,-0.044213407,-0.043996226,-0.024776127,-0.012868132,-0.002630084,0.003176577,0.005373406,-0.003645508,-0.014676648,-0.03100812,-0.019538365,-0.02496541,-0.01492623,-0.01067537,-0.006045706,-0.000578579,-0.014100866,-0.005999952,-0.004840631,-0.014953597,-0.01812753,-0.01704683,-0.030370897,-0.016947055,-0.007322545,0.008089628,0.002937237,-0.010398659,-0.021122156,-0.027204853,-0.028774578,-0.01631483,-0.010237008,-0.004365936,-0.004446329,0.004504254,0.004234802,0.001484314,-0.014867454,-0.024933891,-0.02808574,-0.030222762,-0.02980782,-0.018049195,-0.015366182,-0.014264308,-0.015973907,-0.014066117,-0.028064452,-0.017833741,-0.02644211,-0.0338218,-0.014883417,-0.008258784,0.002701024,0.006219199,-0.006122196,-0.020512955,-0.02524064,-0.024169425,-0.030404173,-0.039894525,-0.035359234,-0.021450253,-0.007363642,-0.001821197,0.000125672,0.013457517,0.009043018,0.00513457,-0.001835324,-0.023549814,-0.025303604,-0.036814652,-0.03893522,-0.029278496,-0.016812094,-0.005537062,-0.003967561,0.011683475,0.022090193,0.012137145,0.004091507,-0.011963422,-0.022393683,-0.009563837,0.020027315,0.040968567,0.027487446,-0.027802233,-0.06731944,-0.074006476,-0.0396049,0.008081093,0.052760106,0.07147454,0.080239624,0.0434382,0.027029734,0.035821203,0.03384528,0.00156604,-0.039474573,-0.04980178,-0.04090132,-0.01243564,0.014445534,0.009207353,-0.019885398,-0.04984924,-0.07925551,-0.07939037,-0.055199135,-0.04647644,-0.005643467,0.000838623,-0.010169275,-0.010544764,-0.026422918,-0.033915974,-0.058131136,-0.07338986,-0.08006593,-0.07340181,-0.06982874,-0.07187123,-0.08044585,-0.06940883,-0.0674281,-0.07507227,-0.081680484,-0.10688748,-0.111223474,-0.10700375,-0.09051447,-0.079121724,-0.0670611,-0.055258904,-0.06819042,-0.07411117,-0.085470915,-0.10184852,-0.10237429,-0.09545632,-0.08643978,-0.0858186,-0.08068337,-0.084503174,-0.092625275,-0.109289974,-0.10662032,-0.105003804,-0.10449767,-0.09957984,-0.091928214,-0.09251302,-0.09596353,-0.08085283,-0.07442108,-0.08613496,-0.10125777,-0.11343423,-0.10597672,-0.099944346,-0.10668132,-0.10148237,-0.09666832,-0.08513506,-0.09140238,-0.08543154,-0.081356205,-0.0899605,-0.08968294,-0.09034884,-0.0888174,-0.07709115,-0.060001984,-0.066864,-0.09717186,-0.110476546,-0.12739736,-0.13063966,-0.1159329,-0.10239738,-0.092508845,-0.089532696,-0.09014059,-0.094831094,-0.1061778,-0.10273856,-0.09741443,-0.09049228,-0.0899713,-0.08368661,-0.079262614,-0.08468106,-0.099218845,-0.09522273,-0.09479983,-0.08655026,-0.08981214,-0.103781156,-0.108762465,-0.08803794,-0.08423896,-0.07321359,-0.06953413,-0.07444885,-0.082470424,-0.09200455,-0.098567374,-0.09989594,-0.100624844,-0.09085524,-0.070141315,-0.05891639,-0.0537296,-0.06494089,-0.08437641,-0.10286348,-0.09382901,-0.079280764,-0.0498077,-0.040925395,-0.045098808,-0.04938231,-0.06431435,-0.06472686,-0.07884246,-0.09125175,-0.08925885,-0.09368215,-0.10042749,-0.09739565,-0.0801847,-0.069283366,-0.06291588,-0.0811604,-0.10765021,-0.12622055,-0.12505391,-0.11532594,-0.09638029,-0.07751369,-0.07394873,-0.068242654,-0.071699835,-0.06340736,-0.06272228,-0.07152494,-0.08092076,-0.09280237,-0.09634459,-0.09289603,-0.08996775,-0.07176714,-0.032666538,0.014435573,0.025385581,0.020500774,-0.035414264,-0.09448826,-0.12409913,-0.117223114,-0.09991119,-0.07493605,-0.055417933,-0.05495722,-0.07668918,-0.11500881,-0.13293438,-0.118369155,-0.08724634,-0.06936746,-0.056518245,-0.068080656,-0.06539517,-0.08827297,-0.088508785,-0.07867403,-0.08034076,-0.08636133,-0.09689341,-0.09786679,-0.0957547,-0.091655225,-0.08994529,-0.08979073,-0.09690853,-0.09835809,-0.092395216,-0.08198237,-0.075209275,-0.07442179,-0.07727798,-0.079987004,-0.08389143,-0.080200486,-0.069060326,-0.072666444,-0.08996964,-0.09574495,-0.10447296,-0.11466674,-0.09976362,-0.09185081,-0.0895254,-0.07694683,-0.074003674,-0.07560368,-0.076440364,-0.088597044,-0.09457653,-0.08828576,-0.07813906,-0.08353122,-0.088501565,-0.07816738,-0.08412919,-0.09546779,-0.0998755,-0.10396706,-0.10074368,-0.09916954,-0.09271599,-0.087400086,-0.08040185,-0.084880315,-0.09794446,-0.112893246,-0.10288516,-0.1001658,-0.09010215,-0.085464805,-0.08153006,-0.07105434,-0.06954682,-0.075427964,-0.07880731,-0.0760496,-0.083262816,-0.08935627,-0.07172022,-0.057773758,-0.054671716,-0.059705038,-0.070694216,-0.0692311,-0.083133146,-0.08067307,-0.074378334,-0.07168861,-0.0735457,-0.06936957,-0.05433145,-0.05019291,-0.045755778,-0.05504159,-0.07661384,-0.07266755,-0.065609135,-0.04406281,-0.033388346,-0.026666943,-0.03802919,-0.04022408,-0.039592355,-0.05414285,-0.059766393,-0.054108396,-0.05161884,-0.03140838,-0.029922187,-0.004790419,0.001381422,-0.022420349,-0.042628136,-0.063052066,-0.05989751,-0.042086616,-0.036983807,-0.03766175,-0.020352187,-0.019561185,-0.012280032,-0.009927044,-0.006803945,0.001168844,0.008555611,-0.003225053,-0.006409073,-0.025476893,-0.036287002,-0.03983686,-0.036727633,-0.012790063,-0.014860787,0.026917387,0.046083793,0.026758363,-0.000994852,-0.03779862,-0.03938751,-0.047604732,-0.03528942,-0.014035272,-0.016175358,0.003235673,-0.00634212,-0.019933864,-0.025780834,-0.024719968,-0.020853959,-0.024986004,-0.013917526,-0.00277154,-0.009493341,-0.024213089,-0.05507824,-0.06639245,-0.07478913,-0.061076637,-0.028936911,-0.009462513,-0.011160173,-0.021293547,-0.025971811,-0.024239775,-0.012858341,-0.003939006,-0.005067073,-0.014723314,-0.045313384,-0.03437422,0.011614611,0.05212892,0.07537855,0.09533958,0.08036087,0.04762441,0.002039812,-0.023573464,-0.023858245,0.015845846,0.04265996,0.044243943,-0.013890966,-0.06530763,-0.085074686,-0.06804447,-0.051906668,-0.0380254,-0.056598704,-0.07612609,-0.08569331,-0.043829262,-0.050202224,0.033877257,0.060044803,0.020682482,-0.009983004,-0.023992807,-0.023568524,0.016359964,0.04823597,0.058172237,0.061200466,0.040022854,0.005321235,-0.00605943,-0.000815915,0.024485027,0.049877893,0.05616643,0.058510587,0.039153144,0.037968893,0.04493298,0.0395965,0.039338574,0.028420078,0.024156196,0.025649993,0.031420514,0.054348856,0.068892814,0.07443961,0.029908482,-0.002379801,-0.015214288,-0.013755128,0.005340389,0.03461888,0.051999006,0.054357436,0.039314635,0.019433606,0.025751855,0.017286928,0.017751068,0.01754516,0.01094419,0.009780862,0.021873977,0.015233288,0.009368917,0.013077847,0.021657027,0.027765442,0.01794565,0.011670437,0.003585198,-0.011962476,0.002725238,0.027670642,0.038764857,0.043089855,0.047103267,0.0331735,0.026342837,0.04239274,0.05541201,0.0626141,0.056893002,0.056875613,0.046523947,0.031082625,0.034357708,0.034889415,0.038014412,0.047556985,0.039631873,0.032395553,0.026895477,0.028945955,0.04040182,0.051099356,0.038258165,0.027741916,0.045172848,0.06792428,0.07977848,0.08524262,0.08872298,0.073677994,0.045170337,0.043979146,-0.004936906,-0.036689583,-0.051340543,-0.022805898,0.049153723,0.10880521,0.12603465,0.11143874,0.05834168,-0.006078556,-0.059973843,-0.09895646,-0.11443819,-0.10262907,-0.07201018,-0.05995816,-0.05197635,-0.09256486,-0.16435117,-0.22178435,-0.23864797,-0.21912171,-0.19473793,-0.24434297,-0.28092626,-0.26340038,-0.16504063,-0.07217433,-0.12400097,-0.113561936,-0.15368564,-0.042280313,0.09857822,0.1036446,0.06479071,-0.054918565,-0.16072996,-0.19984736,-0.05480656,0.1476179,0.31914392,0.3286094,0.267443,0.09570194,-0.03362436,-0.04224345,0.08510213,0.22695333,0.30243164,0.31970114,0.3572454,0.4135021,0.49737746,0.5927063,0.6625572,0.55710053,0.3398249,0.14120844,0.2578888,0.21249624,0.47398263,0.46305427,0.3395203,0.37534666,0.45687875,0.55931926,0.5755076,0.5400562,0.37956706,0.20740725,0.088096194,0.12315087,0.2600217,0.4527627,0.5881279,0.6381986,0.61309075,0.55612296,0.5186987,0.46265084,0.42141992,0.45084956,0.54786474,0.6093098,0.61448634,0.51192826,0.37578627,0.24209039,0.3220319,0.28758234,0.55290204,0.6357847,0.58753407,0.58551604,0.5866277,0.5821705,0.5522025,0.58554476,0.62565565,0.63407487,0.5596729,0.42300332,0.31770036,0.30874777,0.37768388,0.45555356,0.5082356,0.5087341,0.50229055,0.57741666,0.6935571,0.7272724,0.6437439,0.57258236,0.59941435,0.6581362,0.65052813,0.5450096,0.41076276,0.3895002,0.45315862,0.53373307,0.56621414,0.55535156,0.55815065,0.59355086,0.6433611,0.67128015,0.68610865,0.6639615,0.5952151,0.5334287,0.53857595,0.57178813,0.6202045,0.6703108,0.69753677,0.6964264,0.6660005,0.6199799,0.6104621,0.64039975,0.6669652,0.68419695,0.68312174,0.6050483,0.50110257,0.41108415,0.43375006,0.41188186,0.52611583,0.61764073,0.72493875,0.829366,0.88083625,0.85065,0.74090356,0.62729496,0.5774055,0.6236477,0.67658657,0.6986684,0.6844657,0.62557954,0.5546056,0.50471413,0.5151153,0.6065339,0.6915995,0.7264775,0.68973655,0.6336519,0.640372,0.67037266,0.66223437,0.6187175,0.58220434,0.6015159,0.7052321,0.704969,0.7883759,0.74819523,0.6031523,0.46680757,0.36431426,0.4097651,0.51852626,0.63204795,0.71836096,0.77088845,0.7835931,0.7540026,0.6998651,0.64158607,0.60907716,0.61778945,0.65301996,0.66803163,0.65609074,0.6383793,0.623862,0.61578935,0.6223876,0.6234455,0.614863,0.61581767,0.62732315,0.6443123,0.6438672,0.6465272,0.62936455,0.6073096,0.5894983,0.5826531,0.5748165,0.5894266,0.5956696,0.6022054,0.5890689,0.56999177,0.57941556,0.5733485,0.5599109,0.5377107,0.5208865,0.511646,0.53379047,0.5565886,0.57272,0.56193846,0.5326482,0.5085602,0.49567723,0.48184544,0.46875826,0.46736935,0.46804237,0.46189067,0.4374138,0.44017816,0.40690568,0.39399624,0.38465998,0.36816594,0.35730857,0.34507972,0.3390572,0.33187667,0.31795374,0.311539,0.2990009,0.27096283,0.23813131,0.22051503,0.21645653,0.21883671,0.22118317,0.2271204,0.23070644,0.22946322,0.23490776,0.22733998,0.21086837,0.21318525,0.2152125,0.21097459,0.21450686,0.21704061,0.22054966,0.21984643,0.21532802,0.20208935,0.1838331,0.16786404,0.16734932,0.18991286,0.19368362,0.19169073,0.19153869,0.17494673,0.17634346,0.17232089,0.17330356,0.16575319,0.13425398,0.10543172,0.08254046,0.08097477,0.09667545,0.14240839,0.18037833,0.21323252,0.19896571,0.14592798,0.08690238,0.06995859,0.096797004,0.15933196,0.22073273,0.23203787,0.21023595,0.17869467,0.13513508,0.097054474,0.06326083,0.06954302,0.10006693,0.13085589,0.15085062,0.1456758,0.131261,0.11023656,0.08886133,0.0728213,0.06916076,0.08517122,0.12605426,0.1416779,0.13000885,0.064530455,0.00752357,-0.006469184,0.028300963,0.07204929,0.099483274,0.08987808,0.072287284,0.054326423,0.050171323,0.045675777,0.07646906,0.08693179,0.07177719,0.05053361,0.03633348,0.034671508,0.035868667,0.04101369,0.038619805,0.051034436,0.074829176,0.08608945,0.079877116,0.04240728,-0.008048181,-0.039979134,-0.05016864,-0.039868496,-0.016520754,0.019833162,0.039603613,0.040641673,0.035688993,0.014438544,0.008873349,0.02440561,0.029191809,0.003240803,-0.029134931,-0.03962719,-0.04875301,-0.044985674,-0.04631672,-0.053554386,-0.05558212,-0.036005314,-0.004313662,0.012922621,0.014068157,-0.008675509,-0.04968046,-0.07941512,-0.10190572,-0.11240589,-0.098591015,-0.07444126,-0.034657445,-0.013623215,0.014953085,0.010371866,-0.020435778,-0.056308884,-0.08906964,-0.10973124,-0.119747624,-0.11998963,-0.09896067,-0.06913127,-0.07447278,-0.07067184,-0.09679684,-0.11492939,-0.11267108,-0.078405224,-0.05440143,-0.034580465,-0.043895863,-0.06685288,-0.07958303,-0.076105736,-0.07949879,-0.099446096,-0.12106543,-0.1397467,-0.14639145,-0.13993303,-0.13105558,-0.09187519,-0.07452367,-0.057371784,-0.04635017,-0.0423957,-0.05845437,-0.12582318,-0.19909033,-0.20849437,-0.1496749,-0.0835491,-0.051016964,-0.043314077,-0.07340278,-0.106439054,-0.13110079,-0.14935699,-0.1663828,-0.18590008,-0.20195025,-0.23294152,-0.23869328,-0.18318567,-0.09009792,-0.024058815,-0.018332465,-0.08347088,-0.14596356,-0.14123799,-0.09142799,-0.02506649,-0.007474494,-0.036950186,-0.10861061,-0.17002872,-0.20648551,-0.21934523,-0.22982252,-0.16420588,-0.07771101,-0.015375934,-0.043190293,-0.029142028,-0.1702947,-0.2762815,-0.30770257,-0.27031517,-0.1755929,-0.014533607,0.07749112,0.09965629,0.0709838,0.022770626,-0.02541873,-0.07717963,-0.11836463,-0.123044826,-0.084329575,-0.05172105,-0.031877656,-0.01878919,0.024840953,0.06168733,0.0555895,-0.008757518,-0.0941808,-0.18274361,-0.22866853,-0.18738715,-0.06997009,0.04346991,0.10179919,0.115023986,0.13254866,0.10569263,-0.010801359,-0.12771799,-0.16368344,-0.006177611,0.23844212,0.44153422,0.4992309,0.43044567,0.36940306,0.29649332,0.2511643,0.1627768,0.04577982,-0.05646901,-0.08938549,-0.057518832,0.041524418,0.19629772,0.35652974,0.4313463,0.38846672,0.31412286,0.25987917,0.24392618,0.27006063,0.34872124,0.43520415,0.44518778,0.43255252,0.3864181,0.3484104,0.3560019,0.37167147,0.36620584,0.31456164,0.26327893,0.18631297,0.091668785,-0.01367972,0.000158631,0.184378,0.4210665,0.5523274,0.5433104,0.4063709,0.30771375,0.28579777,0.36341384,0.45100358,0.47538233,0.39840695,0.32534504,0.26843116,0.24339461,0.27733567,0.38922167,0.5156007,0.5351669,0.46224037,0.31697562,0.22970007,0.264551,0.33590555,0.42334953,0.46591088,0.4696748,0.4203706,0.37870917,0.4025683,0.46401724,0.5429347,0.54989034,0.47441286,0.42662552,0.42596248,0.43965027,0.44745344,0.42329258,0.39288017,0.40075105,0.41207525,0.3659462,0.27277216,0.22989105,0.27995342,0.42031452,0.5662344,0.58639574,0.5628901,0.49124414,0.44791362,0.48967916,0.5335595,0.5592757,0.53378206,0.46832964,0.4064198,0.39878306,0.43659195,0.43963304,0.41494742,0.38271406,0.34891888,0.32504982,0.3181057,0.37373987,0.4625323,0.54357946,0.56318784,0.5360194,0.5162949,0.52975273,0.5364805,0.51556146,0.49116543,0.47651938,0.47820714,0.47305447,0.5172564,0.52151096,0.45120153,0.37271416,0.32435444,0.3354732,0.42145148,0.5326684,0.6110589,0.6433226,0.6242703,0.5412054,0.46738282,0.42409298,0.42272982,0.44446686,0.4560297,0.45047805,0.40888566,0.3665809,0.35700786,0.3522233,0.36710823,0.42905238,0.5179051,0.5879451,0.62033355,0.60219795,0.5238498,0.5240089,0.4514813,0.42727146,0.44112083,0.46422037,0.47915187,0.47960415,0.48125395,0.48549846,0.48441154,0.48911992,0.48440483,0.443646,0.4188967,0.40016377,0.39651883,0.41693223,0.44761604,0.46622598,0.46522582,0.4518196,0.44389158,0.45046243,0.48419616,0.50579554,0.49438584,0.44745758,0.41257071,0.39430627,0.38760868,0.38308945,0.4092524,0.4004645,0.37370718,0.36597463,0.3463156,0.36032337,0.4089551,0.482167,0.52673197,0.5200918,0.50109905,0.45115975,0.41372147,0.37957448,0.37809193,0.38983464,0.38825855,0.3794625,0.39212143,0.39889628,0.39121237,0.3713378,0.36290592,0.3444348,0.33949083,0.34428525,0.34630838,0.35061392,0.34726286,0.34424573,0.33226016,0.32159832,0.31376913,0.30395856,0.2922492,0.28396,0.26753676,0.24951366,0.24399897,0.2552913,0.28926998,0.29549035,0.29055306,0.25309345,0.2259993,0.22134466,0.23653382,0.25024408,0.25132528,0.23253836,0.2099661,0.17679806,0.17505334,0.16267926,0.15971754,0.16938682,0.18085046,0.17023826,0.1595341,0.15287259,0.14839727,0.14026506,0.13899504,0.14814967,0.15134989,0.1305391,0.1184914,0.1159381,0.12004893,0.101693876,0.091279514,0.07691232,0.08774373,0.09285839,0.089496106,0.094360255,0.10223216,0.103666626,0.113224246,0.12888081,0.13003178,0.11096355,0.098014615,0.089017324,0.08375564,0.08634205,0.09478242,0.09665822,0.10108653,0.099032134,0.105663516,0.108839296,0.092695154,0.0698021,0.053633746,0.04888568,0.075314656,0.0860776,0.094751224,0.09054817,0.08152695,0.0657071,0.06257877,0.06396168,0.076398924,0.09428201,0.09570088,0.09290691,0.08743318,0.080380835,0.07555847,0.055256438,0.033270955,0.005553826,0.005660345,0.04438771,0.08625862,0.102088384,0.108694516,0.1098874,0.101442866,0.085589096,0.0731608,0.06607893,0.06552105,0.063733675,0.061658967,0.06482798,0.06539353,0.06764781,0.07986747,0.04947693,0.050864376,0.0469809,0.03814174,0.045508195,0.05690194,0.058037836,0.05509487,0.04779041,0.039825875,0.0528872,0.07138862,0.08486474,0.077849895,0.060223874,0.046997078,0.032486405,0.039322346,0.03925493,0.041316606,0.043543354,0.03866169,0.0312531,0.026704943,0.02430918,0.04398188,0.048586924,0.037879173,0.01612032,0.006591967,-0.015903631,-0.034075256,-0.060816966,-0.085205086,-0.10696709,-0.10414246,-0.05543582,0.03243225,0.094903,0.096218415,0.02818331,-0.07249762,-0.1623504,-0.22140402,-0.24746089,-0.24694563,-0.20558725,-0.07367553,-0.07831617,0.012913665,-0.004079917,-0.052491046,-0.06742454,-0.08772692,-0.10893098,-0.09317233,-0.010526346,0.11113594,0.18841211,0.20437555,0.1219685,0.012970393,-0.13720426,-0.26702723,-0.3139924,-0.21384908,-0.035786793,0.1299658,0.235555,0.25576192,0.18884388,0.10654964,0.04979518,0.029095016,0.016938174,0.009617831,-0.021895204,0.07054277,0.047723796,0.22957304,0.22189277,0.11252522,0.14832798,0.27890784,0.40919548,0.41499203,0.32154477,0.19631942,0.15526229,0.19603615,0.29607943,0.3115048,0.22800757,0.09283767,-0.003942285,0.007537283,0.13016911,0.28620556,0.34904882,0.29653662,0.19541776,0.091043316,0.08038329,0.13051596,0.1965836,0.23213063,0.32382324,0.47050413,0.48906198,0.49133095,0.389299,0.23381425,0.15492982,0.115344085,0.15488952,0.22940385,0.3235512,0.3620519,0.34328973,0.2761222,0.2592662,0.26600206,0.3027054,0.28983098,0.2512429,0.1876611,0.13586918,0.10072762,0.11213348,0.15612493,0.2553807,0.37711674,0.4414549,0.40015984,0.2922802,0.22596698,0.24945372,0.35195804,0.35742673,0.37295914,0.3007684,0.22527279,0.22752547,0.23281528,0.25702742,0.21464165,0.18609132,0.21694015,0.32463095,0.43768924,0.44359925,0.3610819,0.30882704,0.3286853,0.42673823,0.508918,0.455652,0.25991023,0.037200883,-0.07627645,0.00020381,0.2166223,0.3980707,0.49397916,0.5348189,0.5459497,0.49423686,0.41461214,0.4136122,0.354311,0.35037255,0.38284197,0.37694988,0.37635672,0.34631944,0.30440605,0.23137243,0.1687,0.14870845,0.20550562,0.35671562,0.50253373,0.5369889,0.44452232,0.36174113,0.33999398,0.3654662,0.3948817,0.41861778,0.4248284,0.42917752,0.40373737,0.36274734,0.30790487,0.28410876,0.30136302,0.34400308,0.38557413,0.39047632,0.39372435,0.34127584,0.24657716,0.20913668,0.24962509,0.38798735,0.50061685,0.55410725,0.5120766,0.4360735,0.36568934,0.32591602,0.3109665,0.31922227,0.35429528,0.38013098,0.37840104,0.3736416,0.34870636,0.3418266,0.34520826,0.32323644,0.32429668,0.30304983,0.310408,0.3306011,0.34092888,0.3461468,0.34162113,0.34005797,0.31741595,0.3006285,0.28880668,0.291026,0.28551796,0.29879415,0.30584475,0.30435926,0.30587244,0.29772592,0.28457195,0.27251345,0.24460083,0.23454438,0.22469646,0.20906264,0.2108188,0.20960568,0.2063763,0.18652147,0.1809946,0.16431424,0.1398034,0.12945631,0.1168006,0.10947047,0.10542189,0.10278086,0.1018352,0.10669491,0.08110209,0.0611199,0.048424453,0.051266182,0.045565836,0.04487059,0.032483555,0.022812568,0.018631438,0.027879557,0.03921152,0.034519073,0.0271673,0.025267791,0.021092897,0.023922604,0.013513419,0.010368536,0.004896208,-0.005179585,-0.008581055,0.000243517,-0.000795432,0.005470315,0.011654876,0.004079265,-0.00637646,-0.019469267,-0.030835195,-0.037047446,-0.005992693,0.018505184,0.024024878,0.0166241,0.008018394,-0.005751046,-0.009500362,-0.010664891,-0.00905834,-0.014347634,-0.014645857,-0.009433953,-0.002279407,6.76E-05,0.000241746,-0.004711843,-0.005892816,-0.020925289,-0.020404674,-0.009505836,-0.011264552,-0.019293256,-0.014528417,-0.032118373,-0.042679623,-0.024180217,-0.015578806,-0.011606621,-0.000772221,-7.36E-05,-0.013020365,-0.024018971,-0.036317296,-0.033858933,-0.042597152,-0.045777038,-0.031587612,-0.026294531,-0.03121857,-0.025799904,-0.025154818,-0.037092246,-0.049742147,-0.072769165,-0.08544168,-0.0839294,-0.06055917,-0.03150425,-0.024612049,-0.021613989,-0.019418526,-0.033679347,-0.047732744,-0.05278127,-0.056060854,-0.04906348,-0.04065112,-0.047032394,-0.05331981,-0.055185206,-0.06424498,-0.07003586,-0.06324922,-0.06864626,-0.07316654,-0.08068187,-0.065523915,-0.054794934,-0.051938485,-0.05317979,-0.051170174,-0.050313726,-0.06710139,-0.076739736,-0.07042227,-0.074698225,-0.07478377,-0.07577775,-0.06975895,-0.059797622,-0.06496667,-0.06464447,-0.06661692,-0.073213995,-0.078790866,-0.08533068,-0.089643076,-0.081146926,-0.07088182,-0.07018554,-0.074099265,-0.08986319,-0.10699819,-0.103731126,-0.10630276,-0.09006086,-0.08594964,-0.090404235,-0.09019091,-0.08618197,-0.097979456,-0.100886434,-0.10131285,-0.122950375,-0.13533057,-0.12510827,-0.1078515,-0.10527721,-0.10454244,-0.10551531,-0.104787424,-0.12457033,-0.14598985,-0.16277985,-0.16152363,-0.15062463,-0.136224,-0.12348205,-0.12808779,-0.13082209,-0.13334508,-0.14516608,-0.16046683,-0.15007073,-0.15726966,-0.17047861,-0.17377625,-0.1584346,-0.12739877,-0.096869394,-0.10069624,-0.12783718,-0.13851574,-0.14949077,-0.14948916,-0.1462626,-0.14382343,-0.14643088,-0.14278795,-0.15742178,-0.16385674,-0.15663786,-0.16696069,-0.15875986,-0.1601096,-0.18236989,-0.19318084,-0.18752,-0.15885472,-0.16410244,-0.10972809,-0.121062204,-0.16497278,-0.1769355,-0.19509596,-0.19911718,-0.20497599,-0.18824974,-0.17155239,-0.15568377,-0.146773,-0.15627277,-0.18022689,-0.20568463,-0.21421678,-0.21555462,-0.20680152,-0.19009131,-0.1648479,-0.14552842,-0.14020042,-0.15645738,-0.20454772,-0.23255634,-0.24286659,-0.22799015,-0.20911786,-0.19231035,-0.16961533,-0.16376455,-0.17914851,-0.19382188,-0.20504276,-0.19746694,-0.20874457,-0.20545658,-0.19807477,-0.18641295,-0.16903362,-0.14961678,-0.14334266,-0.1675015,-0.20461519,-0.22449927,-0.22882389,-0.229528,-0.21298067,-0.20040429,-0.19415532,-0.19202735,-0.1892177,-0.20255706,-0.2049208,-0.21855716,-0.20241597,-0.17772739,-0.1729489,-0.18984012,-0.19832833,-0.20076571,-0.20309675,-0.20283486,-0.20914517,-0.20163581,-0.1959392,-0.1948866,-0.18774101,-0.17909792,-0.18011774,-0.18347333,-0.18159609,-0.19770865,-0.21447562,-0.22828463,-0.24117897,-0.23295721,-0.19496326,-0.16717967,-0.15811975,-0.17134292,-0.18969445,-0.20445617,-0.2319853,-0.23275183,-0.21900429,-0.20849098,-0.2117722,-0.20647067,-0.20843862,-0.20631997,-0.22669034,-0.23280464,-0.23169006,-0.22041191,-0.22409163,-0.207055,-0.20004414,-0.2373087,-0.27184325,-0.27609038,-0.25509548,-0.22658825,-0.20844199,-0.19812465,-0.2011784,-0.19457869,-0.18881951,-0.17498904,-0.17043467,-0.19427978,-0.2156297,-0.2274405,-0.24406053,-0.2442647,-0.24590181,-0.2392038,-0.22982554,-0.23018043,-0.22947828,-0.23426062,-0.20801713,-0.19906259,-0.21808898,-0.22737087,-0.2386405,-0.2217665,-0.2009801,-0.19775069,-0.21151586,-0.22284383,-0.23014729,-0.23024872,-0.22686747,-0.21757102,-0.22525929,-0.2240437,-0.22636198,-0.22110994,-0.20922536,-0.19955525,-0.21054183,-0.2261153,-0.2322352,-0.23589191,-0.22792162,-0.2141542,-0.20485295,-0.20631193,-0.21178609,-0.20477486,-0.2239506,-0.22337556,-0.21330316,-0.21857856,-0.21703923,-0.2090518,-0.21278751,-0.2192298,-0.21158865,-0.20301412,-0.18497713,-0.18666954,-0.20016523,-0.22033109,-0.22586904,-0.22055377,-0.21713611,-0.19185027,-0.1842046,-0.1852788,-0.18940702,-0.20359577,-0.21778119,-0.22278649,-0.22600695,-0.214745,-0.19851574,-0.204117,-0.21315442,-0.21980275,-0.19218466,-0.18617572,-0.20461693,-0.20599255,-0.21590514,-0.21356685,-0.2232577,-0.22057496,-0.21409331,-0.21865113,-0.21203172,-0.20908397,-0.22938755,-0.22706263,-0.21802597,-0.22109243,-0.21873423,-0.21298474,-0.2090543,-0.21392459,-0.2198967,-0.21977793,-0.22145689,-0.22853148,-0.23026486,-0.22567013,-0.2231844,-0.2122046,-0.20744435,-0.20368639,-0.21955158,-0.2263928,-0.23989992,-0.24787031,-0.25455222,-0.24988721,-0.23169062,-0.21678989,-0.21262778,-0.2116606,-0.22702973,-0.23363374,-0.24729173,-0.23878789,-0.22766116,-0.2355971,-0.2412396,-0.24372785,-0.2391513,-0.23722452,-0.22868736,-0.22134043,-0.23289658,-0.2217183,-0.23772775,-0.25695556,-0.2590028,-0.24878684,-0.22578207,-0.22607349,-0.22397716,-0.2393995,-0.2508295,-0.24950822,-0.2537803,-0.24649008,-0.23797627,-0.233849,-0.22787304,-0.23851514,-0.24904221,-0.26314732,-0.26056847,-0.25460556,-0.25130326,-0.25000477,-0.24825935,-0.23749079,-0.23018157,-0.21297728,-0.19937073,-0.19738077,-0.21413161,-0.21360455,-0.22915056,-0.26139954,-0.2850671,-0.27724922,-0.2745899,-0.27560797,-0.26045468,-0.24990335,-0.25676298,-0.25110832,-0.25334337,-0.26926112,-0.2758032,-0.2732914,-0.2647603,-0.2512891,-0.24973217,-0.25120053,-0.2650579,-0.2709028,-0.26622567,-0.26003522,-0.25961527,-0.25222024,-0.24980491,-0.25304902,-0.25723574,-0.2691474,-0.2729927,-0.2700044,-0.2630665,-0.27125856,-0.27295408,-0.26226422,-0.25959665,-0.26039562,-0.25064722,-0.25097272,-0.2650404,-0.27280396,-0.2795946,-0.27938125,-0.27471128,-0.25481325,-0.23396257,-0.2394516,-0.24061912,-0.25726008,-0.26894203,-0.2790545,-0.27999648,-0.27148968,-0.27424204,-0.2662166,-0.2579307,-0.26515108,-0.2591896,-0.25763255,-0.27379623,-0.27429593,-0.27927008,-0.27493876,-0.26452932,-0.2638582,-0.25841907,-0.26157343,-0.24511302,-0.26031193,-0.28556004,-0.29343432,-0.29209518,-0.2754597,-0.268879,-0.2631689,-0.25659898,-0.25471544,-0.25499648,-0.2556833,-0.26221895,-0.26768845,-0.27747297,-0.29027912,-0.28845918,-0.28542006,-0.27986655,-0.2698502,-0.27037945,-0.2696599,-0.27115035,-0.28140956,-0.28268716,-0.26944095,-0.26494133,-0.2674249,-0.28253466,-0.2851733,-0.2764899,-0.28667736,-0.29570055,-0.28416592,-0.29378736,-0.29399973,-0.29157904,-0.28280357,-0.26220104,-0.2562585,-0.24601454,-0.25650877,-0.2706334,-0.2894431,-0.3003663,-0.29876044,-0.28970727,-0.28184456,-0.28073376,-0.27532074,-0.2768455,-0.29473537,-0.29764974,-0.2951719,-0.2881245,-0.29126567,-0.2814676,-0.26658085,-0.26752466,-0.27093288,-0.26065215,-0.26638773,-0.27982223,-0.28773025,-0.29804936,-0.30002457,-0.28778628,-0.26610732,-0.25254866,-0.2596521,-0.26468858,-0.27080274,-0.27918974,-0.2841365,-0.27459562,-0.27537408,-0.26263958,-0.2617728,-0.26643598,-0.25383234,-0.2486122,-0.26407915,-0.27868265,-0.29158333,-0.2993598,-0.29534784,-0.2828261,-0.26976636,-0.25226608,-0.24974145,-0.26369545,-0.2775086,-0.27932373,-0.2810688,-0.27548966,-0.27548605,-0.27345374,-0.27109787,-0.27881923,-0.2768532,-0.26526788,-0.27143502,-0.27524135,-0.27495497,-0.27503237,-0.27893367,-0.26916388,-0.2625532,-0.25985226,-0.2564756,-0.25907892,-0.2660295,-0.26416034,-0.26576573,-0.26425213,-0.26162755,-0.26395932,-0.26838052,-0.2817247,-0.28558126,-0.3029454,-0.31643313,-0.29403755,-0.26866347,-0.24261403,-0.24008417,-0.23906313,-0.24380958,-0.2537207,-0.2554649,-0.25458616,-0.2619114,-0.2644734,-0.26811123,-0.2703712,-0.26105037,-0.25274396,-0.25203145,-0.25523973,-0.25829172,-0.2658002,-0.27478275,-0.26711097,-0.2650479,-0.2646686,-0.26127002,-0.2575028,-0.24800532,-0.24146627,-0.23998997,-0.24393268,-0.25443017,-0.27266315,-0.26548794,-0.27231225,-0.27602318,-0.26740342,-0.25686893,-0.24083698,-0.22648932,-0.2203777,-0.23220262,-0.24277276,-0.24490929,-0.25189826,-0.2603105,-0.24313939,-0.255929,-0.24264066,-0.23345238,-0.23997205,-0.246618,-0.2505579,-0.26290697,-0.25402442,-0.24946137,-0.25331518,-0.2356094,-0.23584779,-0.23417114,-0.24031167,-0.24570781,-0.25219482,-0.25803983,-0.26069385,-0.2592232,-0.24811447,-0.23821343,-0.24368487,-0.24501844,-0.24070632,-0.24028909,-0.25754064,-0.26556936,-0.26875898,-0.26039645,-0.23752896,-0.23403499,-0.22779934,-0.23859648,-0.24411899,-0.24026157,-0.24056035,-0.25182882,-0.25546977,-0.2591099,-0.25461024,-0.24500395,-0.22696063,-0.22543503,-0.22816665,-0.23467481,-0.25224373,-0.2463383,-0.24486735,-0.2446853,-0.23304303,-0.220698,-0.21329555,-0.21960159,-0.22454606,-0.24383587,-0.24810892,-0.24484494,-0.2415102,-0.23028947,-0.21783566,-0.21688564,-0.22055416,-0.21976548,-0.2246731,-0.23093228,-0.22851798,-0.2363287,-0.23751622,-0.22909984,-0.23153087,-0.22330362,-0.20120376,-0.200845,-0.1986833,-0.20286934,-0.21143419,-0.21953872,-0.21240461,-0.20491518,-0.19848472,-0.19512482,-0.19406722,-0.20282368,-0.20536114,-0.20612532,-0.21999851,-0.22423121,-0.20763384,-0.19550508,-0.19516033,-0.20303547,-0.20488381,-0.20231359,-0.19319329,-0.18652801,-0.19208258,-0.20882986,-0.20181331,-0.19593675,-0.19357656,-0.19607922,-0.18253389,-0.1917639
