-0.341037462629046,-0.31053335161569,-0.280949793124423,-0.253669263295876,-0.230074669766693,-0.209829244166074,-0.19171561910998,-0.174600766693422,-0.157645552180286,-0.139423487709614,-0.118801763043602,-0.09565446093624,-0.0712820955881327,-0.0471949511532772,-0.0245676817628721,-0.0051622961177235,0.00984655016040769,0.0197876468329604,0.0247869059521902,0.025347823406942,0.02214170969261,0.016385274508661,0.00908545754612094,0.000913566947447375,-0.00766885916458826,-0.016410052692383,-0.0253099694137097,-0.0347461505214663,-0.045096138025496,-0.056611613223225,-0.0693344890150229,-0.0831808175987416,-0.0979407904745138,-0.113068969225355,-0.127977962435496,-0.142080379539699,-0.155082507741384,-0.166900404327275,-0.177534035137128,-0.187193136102265,-0.196213305559907,-0.204930142722578,-0.213427524612945,-0.22166346760193,-0.229595988946704,-0.237057245259663,-0.24379548635657,-0.249558962949401,-0.254389603563189,-0.258413245314911,-0.261629864692272,-0.264039439090927,-0.265432177593033,-0.265556336349075,-0.263950403201008,-0.259859189994933,-0.252905094100407,-0.243088098412526,-0.229778879078228,-0.21025042092946,-0.179971694398654,-0.134034086244216,-0.0675709380002229,0.0242844078670016,0.142622761923857,0.281822318630941,0.430891179376234,0.576529983145999,0.70367730650663,0.795551617448782,0.838895505989239,0.827877391738675,0.762749000867089,0.64749595079369,0.492145211651868,0.313520275495957,0.129913018009284,-0.0432795013568163,-0.193722854761919,-0.312606738269038,-0.396742664085012,-0.450032345128473,-0.479146449012602,-0.491175182734296,-0.493124846535269,-0.49040749548737,-0.486631170267198,-0.483180358706499,-0.480768288048964,-0.479604740327875,-0.479479960053992,-0.480310054196344,-0.482220899869893,-0.485296421264523,-0.489452728108384,-0.494354207975934,-0.499413526285516,-0.50391748783128,-0.507236806004631,-0.508532425877735,-0.507175062648846,-0.503122786242708,-0.497004928997107,-0.489702547211482,-0.48188692885061,-0.474481085834214,-0.468282169430072,-0.463793654871124,-0.460931664438004,-0.459444505903415,-0.459122441752289,-0.459545966108837,-0.460211666266871,-0.460490268840745,-0.459962270519575,-0.458334030373156,-0.455353862157788,-0.450979849690918,-0.445421800691223,-0.439141246773778,-0.432557766531397,-0.425923123995146,-0.419489084008508,-0.413381550687714,-0.407642521261258,-0.402188132219684,-0.39697647468938,-0.392049548271819,-0.38744935334826,-0.383301798763633,-0.379606932596598,-0.376322849843266,-0.373281784721543,-0.370315972199498,-0.36721569414436,-0.363687325471445,-0.359605057206726,-0.354926988790774,-0.349695128072259,-0.343951483611729,-0.337780018519775,-0.331264696605479,-0.324153851611051,-0.31581823336013,-0.305586638509383,-0.293123495144859,-0.278303001240436,-0.26112521696101,-0.242177556948285,-0.222886513382382,-0.204804440612548,-0.188812432098146,-0.1754139973149,-0.165028738661075,-0.157530859156842,-0.152375023971055,-0.149435437309906,-0.148963888564311,-0.151421936922775,-0.157271142139387,-0.167476510663693,-0.18283523411557,-0.203011750846306,-0.227670499740611,-0.256224197139531,-0.287875790677058,-0.321282828513304,-0.355270674688132,-0.389629632164369,-0.423856327474832,-0.45757324916208,-0.490822424683676,-0.523813697334753,-0.556337372411982,-0.58751249413607,-0.616835691763613,-0.643845548819883,-0.667828926176392,-0.688282454335186,-0.705164256489001,-0.718810040822836,-0.729429654367309,-0.737568575282825,-0.743856189781798,-0.748754069050838,-0.75251401539702,-0.755429785307865,-0.757753181752745,-0.759484284949809,-0.76053926773627,-0.760918210938674,-0.760705103363871,-0.759816118721062,-0.7583352463713,-0.756178660559872,-0.75338839732096,-0.74992258524446,-0.745781307001349,-0.741090507024224,-0.73585026842928,-0.730270443765763,-0.724435024248293,-0.718553862816677,-0.712794858747507,-0.707283957645054,-0.70210515143215,-0.69730047834108,-0.692953930594114,-0.688981685170312,-0.685299919175703,-0.6818248098342,-0.678472534478523,-0.675117316696306,-0.671633380165864,-0.668020810181602,-0.664363599800162,-0.660703788296947,-0.657209276536396,-0.654006011583718,-0.651177986695919,-0.648809195157675,-0.646815814893122,-0.645155977681036,-0.643703907611494,-0.64237578261146,-0.641171688280764,-0.640007802504003,-0.638842256976214,-0.637675137194101,-0.636464574757662,-0.635210655051121,-0.633829555699788,-0.632321361940687,-0.630728112769128,-0.629049893240474,-0.627328742151239,-0.625564744340928,-0.623841892218017,-0.622160270372234,-0.620603870945426,-0.619214732088737,-0.618034891799097,-0.617064434066113,-0.616219535019001,-0.61550027829766,-0.614780885820409,-0.614019486999967,-0.61321616489055,-0.61237100233503,-0.611609943491402,-0.611016978445567,-0.610676097048265,-0.610629335062408,-0.610792866465648,-0.611166772666731,-0.611541365584064,-0.611665003017355,-0.611369950174475,-0.610530425819104,-0.609104556108062,-0.607008513049424,-0.604368237564057,-0.601393577943842,-0.59821047446513,-0.594902913226353,-0.591596833830513,-0.588376221688448,-0.585199200322162,-0.581981939047481,-0.578682560656784,-0.575259187567323,-0.571586034124793,-0.56762122197587,-0.563406780061549,-0.558984736920888,-0.554481028374106,-0.549979635981639,-0.545648448572184,-0.541571446857064,-0.53779065726876,-0.534222244265051,-0.530698464167674,-0.527093526690691,-0.523197733400012,-0.518801385397073,-0.513401106399211,-0.506913058095779,-0.499463170918293,-0.491219328655475,-0.482433322292455,-0.473440850005229,-0.465206917137842,-0.458444805455771,-0.453658026985414,-0.451014462474369,-0.450598084455165,-0.452450911084959,-0.456237375381937,-0.461286279065161,-0.466758607928941,-0.472318793355129,-0.477757127704977,-0.48286390278001,-0.487471363662226,-0.491747385623309,-0.495985704896065,-0.500312241756305,-0.504769008208173,-0.509565831048825,-0.515290121088369,-0.522529288542404,-0.531451204579811,-0.542097878232562,-0.554427410236673,-0.568062269959509,-0.581827803103062,-0.594465447062249,-0.605555715507388,-0.614804983018791,-0.622003531238538,-0.62715141040161,-0.630668208556742,-0.63297351311505,-0.634109326243562,-0.634075695620757,-0.632872668278439,-0.630416382909234,-0.626622977553439,-0.6211568665274,-0.612927294283031,-0.600843504612021,-0.583940602177802,-0.560204844858201,-0.525776520691544,-0.476376378598268,-0.40810275143032,-0.317431555969057,-0.202474908267817,-0.0660437543218004,0.0833452376581315,0.233777138712315,0.369645082220266,0.474796802263777,0.53551335661067,0.542648772802076,0.493014525032885,0.389127811084167,0.240302352289731,0.0612639166582678,-0.131709434848949,-0.321081025230767,-0.490656699824006,-0.628857226198512,-0.729137832604541,-0.792715207885301,-0.824246255459886,-0.831366601029679,-0.823390023388443,-0.807952146836321,-0.790926533489844,-0.77491434486814,-0.761174218754424,-0.75020962302333,-0.741601040261573,-0.734845044664343,-0.729647978949126,-0.725632277442119,-0.722462327612911,-0.719760562385146,-0.717107460136886,-0.71433522161479,-0.711276046865706,-0.707887996771713,-0.704254993050769,-0.700460956722975,-0.696589808111369,-0.692599605308321,-0.688322544176471,-0.683506912194542,-0.677900996148047,-0.67137894366488,-0.663856855526885,-0.655250831826301,-0.645770648880838,-0.635709990010982,-0.625320584007007,-0.61468634359605,-0.603807273133353,-0.592725330138387,-0.581314656072484,-0.569491345564729,-0.55725540025864,-0.54469072881409,-0.532132962288566,-0.519959684915126,-0.50854848025968,-0.498109115843892,-0.488683543147406,-0.480355666834239,-0.472999621686218,-0.466447587984668,-0.460531745357708,-0.45516818047242,-0.450314933192618,-0.445804181202219,-0.441384193852765,-0.436761286011011,-0.431599818061734,-0.425438288220976,-0.417857147918249,-0.408646617178797,-0.397848638471458,-0.385672969022114,-0.37228741159274,-0.357775860639789,-0.341802671558879,-0.323738522222564,-0.302912136052599,-0.279113728161182,-0.252553051509591,-0.224069166135788,-0.195424116071707,-0.168673621674565,-0.14574754118232,-0.12735907075206,-0.113676005980861,-0.104362695754399,-0.0985800422507854,-0.0953211317030106,-0.0936629574717859,-0.0932698661873508,-0.0939740193052924,-0.0958593008002442,-0.0995130402389031,-0.105858197404895,-0.115733823854762,-0.130146785991109,-0.150103949687585,-0.176150688000176,-0.207783527344074,-0.243785778256618,-0.282730981539546,-0.323024862108272,-0.362947282841203,-0.401071783032458,-0.43634948608608,-0.46823496105509,-0.496560361111668,-0.520948069724342,-0.541356100645352,-0.557910282536099,-0.570988166661556,-0.581009257670965,-0.588351105913029,-0.593768845888964,-0.597933703964375,-0.601265182994892,-0.60414083155522,-0.606770382409644,-0.60923770636186,-0.611542766104815,-0.613559662380941,-0.615288357056154,-0.616602950056039,-0.617461448595073,-0.617905767181776,-0.61793586608943,-0.617593659050907,-0.616921059419073,-0.6161277955513,-0.61533968774581,-0.614640602091771,-0.614072450474596,-0.613719098270893,-0.613538548974529,-0.613362944201969,-0.61306637907693,-0.612522948390941,-0.611732608143199,-0.610569452477064,-0.609117344444041,-0.607502100629944,-0.605891491160345,-0.604453285861219,-0.603229392729962,-0.602345627164972,-0.601759988902228,-0.601430477400074,-0.601189230310274,-0.60091033886281,-0.600467894026592,-0.599819894204631,-0.598924337549944,-0.597781175815916,-0.596516222051494,-0.595171381382642,-0.593956374086818,-0.592913104839975,-0.592125431946225,-0.591635259653764,-0.591442538160433,-0.591505263619287,-0.591529708920056,-0.591348008298089,-0.590792295805449,-0.589694705316476,-0.587845416688515,-0.585244378836392,-0.582059355893129,-0.578290296456934,-0.573685425907094,-0.568370554081793,-0.562723213749171,-0.556953122164644,-0.55118608876604,-0.545799645937652,-0.541674772084633,-0.538895322449066,-0.537209521408436,-0.536365593239634,-0.536237623658854,-0.536573836758093,-0.5368707334761,-0.537086306965705,-0.537262457995815,-0.537524994956779,-0.537873864641631,-0.538267059941059,-0.538620619848713,-0.538766675621676,-0.538537358475372,-0.537680891899181,-0.535987453196125,-0.533163311953621,-0.528956691583128,-0.523115815480488,-0.515430860875893,-0.506069589597556,-0.495241717318251,-0.483492590474116,-0.471451463200785,-0.459873451183219,-0.449597577815884,-0.440791605000958,-0.433497433135924,-0.42750523958402,-0.422479340213571,-0.418042097092487,-0.413690010803435,-0.409297166586464,-0.40482155743003,-0.400263130230897,-0.395579878109194,-0.3905200250338,-0.384873748895885,-0.378389273823866,-0.370898731722428,-0.362276208432225,-0.352605559113652,-0.342222362096115,-0.331462195813532,-0.320702592653537,-0.310237177427359,-0.300317621218953,-0.291153641389265,-0.282871047735643,-0.275637604030487,-0.269495212646121,-0.264443822248542,-0.260441427801496,-0.257278209036044,-0.254786299678655,-0.252713925920693,-0.250935175646421,-0.249408044592046,-0.248132482504724,-0.247192346991157,-0.246713449676509,-0.246905510052923,-0.248020201638343,-0.250225290445668,-0.253604634986308,-0.258158186273702,-0.263718080137151,-0.270032544914882,-0.276681993767789,-0.283330747751688,-0.289768989665422,-0.295954717898927,-0.30184593105715,-0.307484535652835,-0.312954392264813,-0.318297407851413,-0.323513535753478,-0.328476868007682,-0.333271266108006,-0.337938637939687,-0.342604799316495,-0.347395566293867,-0.352394801326812,-0.357686367117406,-0.363186311238142,-0.368810681513791,-0.374559433713566,-0.380474477708795,-0.385884508268597,-0.389824543510468,-0.391161786437081,-0.388553671093748,-0.380531770260311,-0.364830533936217,-0.339561996997613,-0.302670379216786,-0.25163840835048,-0.18273215093514,-0.0908331969095915,0.0281699712283474,0.175410147713485,0.346859803580837,0.530981671353966,0.706882775871212,0.846244311145724,0.919404947862674,0.90559757151365,0.795969959222142,0.599332456482335,0.342871192519616,0.0649739728250446,-0.193663935947729,-0.404513882446491,-0.550458661414963,-0.630239621244875,-0.65719804863253,-0.650213138098903,-0.628415807543441,-0.604140452315407,-0.58493872976619,-0.573160020802049,-0.566958322160671,-0.564110046290595,-0.562895052093227,-0.562474229526979,-0.56263777653907,-0.563301752928369,-0.564382218811575,-0.565753280778989,-0.567247091895072,-0.568695805543776,-0.569889621584198,-0.570702647885477,-0.571134854172,-0.571228164334129,-0.571024502583692,-0.570649701143905,-0.570313500249612,-0.570141732768214,-0.570134370355016,-0.570291384987818,-0.570570795122192,-0.570846711846723,-0.570867385038211,-0.570506926430588,-0.569681401925229,-0.568348831590876,-0.566509189663533,-0.564246358391138,-0.561770081878213,-0.559164243016739,-0.556470771175554,-0.553605734510455,-0.550401293808712,-0.546689610178382,-0.542302845047954,-0.537073160165961,-0.530958579135028,-0.524084941256245,-0.516787855373527,-0.509319022959373,-0.501888191959172,-0.494789018325111,-0.488231250636325,-0.482298776253486,-0.476907667473357,-0.471973996907432,-0.467413837481267,-0.463059354744154,-0.458658806868407,-0.453834590803815,-0.447915426897608,-0.440271989652242,-0.429981276966048,-0.415994425511704,-0.39772406456287,-0.375212131372625,-0.348920101948501,-0.319770944896419,-0.289358890643887,-0.259739662214991,-0.232339675264153,-0.207914084230369,-0.187469766922276,-0.171174524551877,-0.158692712492106,-0.149311101810289,-0.142526233094611,-0.13791855491863,-0.134690931547232,-0.13225599676306,-0.130445923089562,-0.129848052548479,-0.131091681296846,-0.135099782694829,-0.142543607321984,-0.154555898338094,-0.171975722275318,-0.194467438295872,-0.221569544311409,-0.253365938499009,-0.290485919300061,-0.332426031626355,-0.37855695913462,-0.428375247294311,-0.481461349541656,-0.535843427330554,-0.589088150096748,-0.639978849049467,-0.686837363377505,-0.728405070989294,-0.763633119287665,-0.792311732841005,-0.814608721089107,-0.83064993989384,-0.841526183813686,-0.848412155361402,-0.852230834244338,-0.853821292742595,-0.853854788018265,-0.852583039045407,-0.849964088143393,-0.845914024044728,-0.840516751118046,-0.834023989367026,-0.826771366739667,-0.819178419127212,-0.811580774983803,-0.804146247635779,-0.796958742970266,-0.790060213278949,-0.783366749567401,-0.776878350778154,-0.770511108410404,-0.764390883432741,-0.758601583213238,-0.753185161518464,-0.748225526202147,-0.743638769980115,-0.739466847343077,-0.73554194379713,-0.731738198931743,-0.727929752574024,-0.723948790942992,-0.719753362027968,-0.71525956020841,-0.710467387787515,-0.705376847301718,-0.700029895364676,-0.69455239651126,-0.689112169351923,-0.683835078882261,-0.678846990327051,-0.674231815294655,-0.670031511776271,-0.666246084145181,-0.662665767776756,-0.659206659806292,-0.655784857593855,-0.652400366413237,-0.648969284072008,-0.645449662445322,-0.641967369009734,-0.638564363773663,-0.635282606966417,-0.632122105192783,-0.629166772966905,-0.626416617332444,-0.623871645551663,-0.621447957415259,-0.61914556062112,-0.616922509239362,-0.614778811401479,-0.612714475455051,-0.610645602273641,-0.608572200635631,-0.606368417999696,-0.603992309728479,-0.601401931398558,-0.598639246489694,-0.595788172539637,-0.59297458114377,-0.590366297954762,-0.588131148837419,-0.586353052178725,-0.585073972732356,-0.584377829308032,-0.584264633236778,-0.584734396060297,-0.585661267996259,-0.587003307162163,-0.588718571885461,-0.590723166858533,-0.592975150828114,-0.595348675060648,-0.597759844876563,-0.599956950426003,-0.601604374378311,-0.602366499611513,-0.601949663057008,-0.600228017233888,-0.597201576404008,-0.59299621657187,-0.587989537018988,-0.582517183390053,-0.57699870922731,-0.571895622125667,-0.567627476042983,-0.564781640524111,-0.563693762252644,-0.564657534274973,-0.567840788310602,-0.57315963321766,-0.580320408837689,-0.588609916771526,-0.597231051137842,-0.605428660107584,-0.612195868990229,-0.616357987923421,-0.616530558028148,-0.612210151374046,-0.60360655560013,-0.591097373932142,-0.575479748251477,-0.558054266784826,-0.541002548707567,-0.525457367282071,-0.51162851139217,-0.499641862439561,-0.489371578964529,-0.48048205049078,-0.472050312922065,-0.463530986973035,-0.454756278169237,-0.445516438398919,-0.43585344282676,-0.425851220669757,-0.415719562886853,-0.405710214489275,-0.396158828385329,-0.387359103845909,-0.379394971125178,-0.372308406839806,-0.366183341658553,-0.361145660302209,-0.357153432319429,-0.354290589000391,-0.352641061842255,-0.352330736393881,-0.353359636876445,-0.355643880028149,-0.359183490483362,-0.363978493082847,-0.370028912873607,-0.377250867419085,-0.385602428333441,-0.395041667436547,-0.405484702908961,-0.416512022377972,-0.427704113675923,-0.438683418684781,-0.449114333335877,-0.458745161454439,-0.4674081147593,-0.475229082086679,-0.482459814010572,-0.489310107463124,-0.495905851889445,-0.502372936936855,-0.508753344764846,-0.515089057734293,-0.521254243027728,-0.527123068028157,-0.532611654163384,-0.537468307681413,-0.54148328887401,-0.544362950541694,-0.545897553372439,-0.545919312096254,-0.544260441639746,-0.540837064815109,-0.535145766181625,-0.526725084337977,-0.513812988887313,-0.493430788126131,-0.461425082888338,-0.411628689648056,-0.336573855880731,-0.228163521579403,-0.0821603806495097,0.099044165333922,0.304164499506953,0.510545512873344,0.686721788839532,0.797661833818089,0.817857676812466,0.735730023124118,0.559250069559429,0.315268242913733,0.0438084770770204,-0.211455309738896,-0.420358337530348,-0.565783472207538,-0.647814656230386,-0.678492678004765,-0.677158295106184,-0.662313188383411,-0.645117116010034,-0.632031005706639,-0.623977877842941,-0.619615245332194,-0.616300052060496,-0.612983488177754,-0.609455820889324,-0.605759040626889,-0.602102953357142,-0.598529549821517,-0.595164728603356,-0.592050480746856,-0.589102935910429,-0.586070408520038,-0.582785120836225,-0.579079295262561,-0.574785154343689,-0.569776874608159,-0.564096448100863,-0.557911728536162,-0.551306662071695,-0.544365194995894,-0.53721322757064,-0.529934706339434,-0.522194039521783,-0.513152189321302,-0.502641379578358,-0.490829465009177,-0.477842346600099,-0.463931786984454,-0.449978856577949,-0.437787610489937,-0.427861534745466,-0.42015871548949,-0.414637238966943,-0.411087376140841,-0.409005721155185,-0.407385422108169,-0.405848934859599,-0.404270438424759,-0.402524111902709,-0.400651949852747,-0.398653993067452,-0.396614190104256,-0.394532581903245,-0.392367255629025,-0.390076298512549,-0.387408028624002,-0.384026856404202,-0.379009838523682,-0.371769662465594,-0.361802923453646,-0.348564262914456,-0.331424414629518,-0.310341466249063,-0.286574074650719,-0.261003312143413,-0.23446829722259,-0.207975963790939,-0.182952784223908,-0.159734430952768,-0.137272099547419,-0.115104339419414,-0.0931053307495253,-0.0710653460359982,-0.0486068424013402,-0.0263172153988423,-0.00591661438822571,0.0119236573986314,0.0272455121028232,0.040384538793931,0.0515924188703854,0.0611627875976867,0.0697249110259292,0.0771109321834854,0.0824397787704804,0.0841171631626522,0.0807585670012632,0.0713990104211028,0.0552832828303172,0.0321596198280946,0.00244751858791231,-0.0326364006040131,-0.0715818404825516,-0.11250091910999,-0.153337939096082,-0.192456741421456,-0.228724613123166,-0.261428379600957,-0.290777850750975,-0.317318467134166,-0.341553715368745,-0.363819266591578,-0.384157114919544,-0.402441438979802,-0.417791248078112,-0.429954859073668,-0.439184034840406,-0.445814445814574,-0.450307623835302,-0.453250962140341,-0.455483576896262,-0.457425045677059,-0.459201268994334,-0.460896193361918,-0.462593765136402,-0.46433597666801,-0.466122866296302,-0.46787056450104,-0.469579109277157,-0.471290492285623,-0.47304670500431,-0.474931692568493,-0.477239169145815,-0.48034675639751,-0.484422306560352,-0.489507810131979,-0.495645257401048,-0.502876638442924,-0.510656589287905,-0.517936299606568,-0.52362500499849,-0.526841710056883,-0.526663465295401,-0.522251228678329,-0.513646988667899,-0.501857671909675,-0.488477558624943,-0.474807251865272,-0.462273215956496,-0.452385822649692,-0.446193951134336,-0.443823495741119,-0.444938858230803,-0.449414209307188,-0.456955904009616,-0.466599035571028,-0.476917204637974,-0.487281134611126,-0.497229363968942,-0.506216523194716,-0.513823103996671,-0.520007182372892,-0.525188326297006,-0.529408518817851,-0.532625834969304,-0.534924210990491,-0.536345628942651,-0.537141839774219,-0.537522640248102,-0.537697826782726,-0.53787719544829,-0.538228588118226,-0.538835938620698,-0.539657318890127,-0.540608846653209,-0.541606639270149,-0.542524859886285,-0.543111809738933,-0.543283605067637,-0.542872454041806,-0.541794472136583,-0.539923820595014,-0.53721856795917,-0.533762643911675,-0.52951411620353,-0.524389098340543,-0.517884164976774,-0.509999336497437,-0.500818540567616,-0.490467658284401,-0.479156478018703,-0.467388464636399,-0.456464205633254,-0.446845211184093,-0.438783221812279,-0.432404116076578,-0.427791818258076,-0.424946344512686,-0.423406218265147,-0.423045593258019,-0.423864484325063,-0.425778998164668,-0.428747194871888,-0.432475411022336,-0.436711936583605,-0.441205061068186,-0.445619165841618,-0.449870354878889,-0.453748870158965,-0.45738058395576,-0.46089136807759,-0.464491001554883,-0.468389262948668,-0.472628114969482,-0.477375381389345,-0.482547162436692,-0.488059557863647,-0.493744759254808,-0.499560819249821,-0.505507743852289,-0.511627492428367,-0.518087885395075,-0.524972834994916,-0.532324299139493,-0.540016419873896,-0.5479233387549,-0.555751381470659,-0.563081011684573,-0.569618554103308,-0.575280102165607,-0.58002370266225,-0.583765448045712,-0.586547291808811,-0.58849509463932,-0.589734716729829,-0.590308110087665,-0.590341133913812,-0.590085508447418,-0.589667091896654,-0.58925369581782,-0.588971177425609,-0.588861485748255,-0.588966569317212,-0.589202514632797,-0.589695176922924,-0.590528457074425,-0.591828209323002,-0.593804195098426,-0.596917898404263,-0.602469879645864,-0.611634837200104,-0.625545515105675,-0.644873164615617,-0.669827544198107,-0.699989104158051,-0.733302094362342,-0.767836625723285,-0.801746716354845,-0.833354199263428,-0.861736076176566,-0.886263025251172,-0.90714480105755,-0.924255526925859,-0.937385418016515,-0.947079858218135,-0.953548600183854,-0.957085303781205,-0.958025582249062,-0.956914817578743,-0.954382298981446,-0.950679730597193,-0.94622663147952,-0.941694243287203,-0.937837714907151,-0.935496102456631,-0.935382600061469,-0.938126493703229,-0.944063391997545,-0.952815687748419,-0.963502327174876,-0.974864671448044,-0.98572798898686,-0.994665824702261,-1.0,-0.999968428162801,-0.993983729697888,-0.982381509271067,-0.96566518650304,-0.944715765196628,-0.921253325632974,-0.898046793798883,-0.876228895321683,-0.855380063162227,-0.834787052962906,-0.813526850740766,-0.789124149856828,-0.75876801251945,-0.719983131305091,-0.670755690696485,-0.608106936362534,-0.527212144420924,-0.424085667510445,-0.294070596381417,-0.135572652088604,0.0471708602466596,0.241657728432858,0.425526587101014,0.5710459790962,0.648093078455486,0.635397320815299,0.526497849371468,0.332806145546668,0.0817181059691238,-0.1888399573584,-0.437795193751353,-0.63632527489672,-0.770879071684635,-0.843847915730132,-0.867356430344544,-0.860409669092494,-0.842809808297835,-0.826933193463824,-0.818443554639898,-0.817089129478128,-0.82110781694419,-0.827269131167136,-0.832762124461268,-0.836286187296467,-0.83742174063096,-0.836420466692312,-0.83315646286206,-0.827587733973884,-0.819630330784327,-0.80920030382283,-0.796297611086613,-0.781006118045942,-0.763829228407978,-0.745354253363545,-0.726462180816566,-0.707950090786065,-0.69057310925637,-0.675002454337707,-0.661531759357904,-0.650119026712657,-0.640260766336548,-0.631453488001552,-0.623109793632904,-0.614558377314627,-0.605169886829526,-0.594482785199206,-0.582455073758553,-0.56912866140276,-0.554419595368822,-0.538243922775595,-0.520895275232785,-0.502877053467288,-0.484482888880629,-0.465964458933868,-0.447909071756621,-0.431029896928609,-0.415620565502649,-0.401555170010312,-0.388498033691672,-0.37607152588024,-0.363688246629344,-0.350928611321159,-0.337498896827538,-0.323357103050125,-0.308670999081182,-0.293566400140312,-0.278294982959376,-0.262814747339929,-0.247167600762219,-0.231227635321882,-0.21486894311483,-0.198217339311765,-0.181188869870745,-0.163615673077222,-0.145078164170318,-0.125366527641395,-0.104438763394762,-0.0821270098394608,-0.058640990032597,-0.0345680116848308,-0.0107051517865617,0.0123602818348169,0.0347961504921433,0.056518592357409,0.0776115609045677,0.0983687787489877,0.118958106883552,0.139169821604425,0.157661445299001,0.173593946388594,0.186338062409464,0.195180623093853,0.199618227278535,0.199105519830734,0.192971283953351,0.180502348869497,0.161069451351874,0.13454677416593,0.101144130685564,0.0617845494915211,0.0188174897283749,-0.0256173588483472,-0.0699257066356043,-0.11280694111877,-0.153338034566086,-0.190847682498976,-0.225419749834621,-0.257012240149453,-0.284953849545985,-0.309118674312385,-0.329674487858146,-0.347040786873819,-0.361679022111421,-0.374134552233728,-0.385288366887616,-0.395601917501704,-0.405201024980332,-0.414211510466424,-0.422675287656111,-0.430634270492588,-0.438088419325464,-0.444995740914902,-0.451440103814974,-0.45742146915361,-0.462939798326233,-0.467995052999706,-0.472419379736965,-0.475961017690508,-0.478032575537299,-0.47800470839626,-0.475457840900912,-0.470182167203041,-0.4623454663556,-0.452451148471459,-0.441422162416572,-0.430307318899713,-0.419861752027708,-0.410463011619172,-0.402278878587113,-0.39522541109739,-0.389050852261579,-0.383419537829786,-0.378163619262691,-0.373283063734618,-0.368777838757286,-0.364731819872412,-0.361228882964999,-0.358352904266195,-0.356103852666479,-0.354523651252875,-0.35361226962203,-0.353285770038051,-0.353544122814386,-0.354345344781928,-0.355689406981142,-0.357450419285248,-0.3595863996267,-0.362055366309899,-0.364689476479016,-0.367404795344326,-0.370075434649931,-0.372743321899985,-0.375324523447032,-0.377860967562942,-0.380436536751241,-0.383051206214563,-0.38578885923579,-0.388649471800579,-0.391758881823208,-0.395075112234545,-0.398640094052601,-0.402495758694488,-0.406642084133134,-0.411121002588405,-0.415974446683715,-0.421412164826683,-0.427476090451895,-0.434292065091092,-0.441943976839928,-0.45038985266949,-0.45954576611705,-0.469243883442298,-0.479442232852441,-0.490266658347974,-0.50188495818912,-0.514213207982931,-0.52704162221854,-0.540118461957541,-0.553066127145031,-0.565087479696508,-0.575385381946649,-0.583875912011769,-0.590601009962826,-0.595602616291386,-0.598964625754816,-0.600812887376606,-0.601189342912185,-0.599758349935396,-0.596268174131686,-0.590634896987859,-0.582858508102508,-0.573232674410123,-0.562302786336244,-0.550656188573276,-0.5387963185459,-0.527100752566068,-0.515989021212047,-0.505838701638505,-0.496817602196893,-0.489009623969534,-0.482540622303645,-0.477452545276407,-0.473703433694442,-0.471167421093237,-0.469718641426166,-0.469189275219005,-0.469369549569212,-0.470133599679635,-0.471313607323237,-0.472699800842247,-0.474166316681719,-0.475671199388585,-0.477130540076209,-0.478460430268167,-0.47961891574199,-0.480647950372855,-0.481589488442778,-0.4824854846394,-0.48337789405473,-0.484350626028665,-0.485445636458005,-0.486704881639889,-0.488086410580722,-0.489548272684349,-0.491174379284998,-0.492880826731986,-0.494709573301862,-0.496534762283038,-0.49831444504302,-0.500048627181879,-0.50161145315121,-0.503086837010895,-0.504390877823889,-0.505691398102539,-0.507156220737758,-0.508995122841887,-0.51129202036743,-0.513753245036109,-0.516001221250537,-0.517490558402476,-0.51767586624998,-0.51584393953594,-0.511659157968532,-0.505415209287886,-0.497783366194891,-0.489434901745504,-0.480915227813945,-0.472895618159227,-0.465879531509007,-0.460034796177857,-0.4554453331337,-0.452320925219394,-0.450913309460543,-0.451432269373286,-0.453919773427224,-0.45837583657724,-0.464506797191913,-0.471809224740457,-0.479863596703724,-0.48820843703699,-0.496508131546443,-0.504469020196725,-0.512007212487374,-0.519248587449939,-0.526193162886535,-0.53288291074619,-0.539359803277073,-0.545623859178693,-0.551633143598901,-0.557135952751576,-0.56204839851695,-0.566286593059246,-0.569808602668402,-0.57261444775694,-0.574746102856815,-0.576413358150704,-0.577784050244717,-0.579109923699629,-0.580600769493196,-0.582382471172067,-0.584287235624413,-0.585853593076622,-0.586284443245165,-0.584489009178076,-0.578998929561952,-0.568807335614973,-0.553159081859404,-0.531508792273373,-0.50272373723586,-0.465083833523263,-0.416743136598943,-0.35392582528251,-0.271010109435971,-0.16229029144264,-0.0252911199443613,0.135666133352369,0.311896996679481,0.485361290677374,0.628327497639931,0.711931345861293,0.714147040155174,0.627171138546703,0.456080029241826,0.222647730509512,-0.0365839861763006,-0.284611857216517,-0.492403849691954,-0.642549145858963,-0.732782266110605,-0.772165269094378,-0.777899259502249,-0.765591096068819,-0.747113745481824,-0.730732143912881,-0.718460104790148,-0.709962026362813,-0.70360173781786,-0.69874996074142,-0.695029139908282,-0.6921875817437,-0.69009945431966,-0.688387202747759,-0.686757179934026,-0.684957692730358,-0.682779001930776,-0.680095276112506,-0.676822637787413,-0.67308697877754,-0.66901419098727,-0.664772120244406,-0.660402750917156,-0.655990021289678,-0.651492008179071,-0.646782880776467,-0.641694854488125,-0.636060144776535,-0.629962690225619,-0.623486429468103,-0.616925070405914,-0.610656228672023,-0.605183381471574,-0.600884144509282,-0.597842456606481,-0.59618421045601,-0.595825529549636,-0.596472768174401,-0.59724492680561,-0.597135144396205,-0.595304375286884,-0.590661850754294,-0.58241047899008,-0.570298568166215,-0.555123272569255,-0.538143238769297,-0.520533205633774,-0.503761588927289,-0.488877265946152,-0.476341760135593,-0.465987287241436,-0.457310432220355,-0.449807779994958,-0.442724192381411,-0.435514300379018,-0.427758596477155,-0.418953665427764,-0.408721953466063,-0.396895675996808,-0.38347486374612,-0.368291731999588,-0.351094588288592,-0.331799555455915,-0.310364710118004,-0.28662226728243,-0.260614211103201,-0.232927925636093,-0.204738148680272,-0.177471341016551,-0.152386147956038,-0.130573399336998,-0.112662432607995,-0.098737185135164,-0.0883361941991343,-0.0807043200609021,-0.075296192096637,-0.0717342549498615,-0.0698926762181115,-0.069897346449984,-0.0720839252973876,-0.0768300261333616,-0.0845971698940162,-0.0965600927479735,-0.113557899973051,-0.136094065953465,-0.164252526487412,-0.197907448008423,-0.236177827599991,-0.276630369941303,-0.31733522570074,-0.356907945378053,-0.394593386991401,-0.429888131471394,-0.462960021106736,-0.49452229800725,-0.524868665670539,-0.55374742744506,-0.580403440372521,-0.60412351516813,-0.624152508528587,-0.640154815422764,-0.652256322934211,-0.66096050256925,-0.667106456409902,-0.671491332508309,-0.674870324884546,-0.677830811990022,-0.68062454132608,-0.683419352510842,-0.686173315742692,-0.688802547177548,-0.691097301237234,-0.692889785986815,-0.6940961169775,-0.694590455710304,-0.694372825013483,-0.693485201351078,-0.692137376355602,-0.690455233757379,-0.688606610917296,-0.686717391135492,-0.684871503649719,-0.683068969788923,-0.68122590297168,-0.679342324083939,-0.67733434609825,-0.675160035606767,-0.672819412819819,-0.670312497719709,-0.667639310059357,-0.664757915516169,-0.661710287225212,-0.658538398088339,-0.655200313083333,-0.651779958486845,-0.648319306493972,-0.644860329061985,-0.641444997909263,-0.63811528451427,-0.634997067804206,-0.632048411085135,-0.629269331265166,-0.626617891163938,-0.623968245666951,-0.621194549414402,-0.618170956800413,-0.614855529661934,-0.611248283433225,-0.607475094834832,-0.603661840338504,-0.599976350011416,-0.59650254598116,-0.593366303969685,-0.590567637913529,-0.587980699963377,-0.585521595862923,-0.583064477258854,-0.580483495545325,-0.577652801863657,-0.574530454791695,-0.57111646649876,-0.567452802745438,-0.563539475193774,-0.559544310631237,-0.555551227901701,-0.551728053284654,-0.548242612805527,-0.545220778390877,-0.542872329402875,-0.541155321880819,-0.540069765454969,-0.53944785412258,-0.539121781627348,-0.538923741459602,-0.538602019166895,-0.538030761578365,-0.53712606911538,-0.535887949636685,-0.534358364593937,-0.532579275187264,-0.530676550055323,-0.528776057586101,-0.526961712072576,-0.52531742755803,-0.523885163991772,-0.522664927229691,-0.521572815190034,-0.520608833233295,-0.519731032628406,-0.518897464398232,-0.518066179320265,-0.51723718177218,-0.5164943835774,-0.515753880936965,-0.515015677499254,-0.514279776671177,-0.51354618161903,-0.5128568491142,-0.512127874154792,-0.511443166880293,-0.510802729503612,-0.510206564001694,-0.509612718271701,-0.508937286132035,-0.50822222270266,-0.507425575182072,-0.506547344382844,-0.505629484732734,-0.504755904275819,-0.504010510828817,-0.503393304292624,-0.50286233049832,-0.502375635053193,-0.50184930949715,-0.501199445148778,-0.500342133106604,-0.499277371940017,-0.498005160000922,-0.496609403114691,-0.495132053047033,-0.493698969039798,-0.492394056277874,-0.491259265890562,-0.490462410332242,-0.489961532625218,-0.489798583274866,-0.489847697202153,-0.490066916813983,-0.490372330470202,-0.490596118640233,-0.490696323128654,-0.490589031697404,-0.490274239601737,-0.489709988057269,-0.488896271931135,-0.48783308589869,-0.486520424445044,-0.485000235711421,-0.483314467651888,-0.481463114190091,-0.479404215220819,-0.477053856611569,-0.474370077893763,-0.471185056885048,-0.467372925070158,-0.462891721447326,-0.457867300219512,-0.452425515416729,-0.446650267052815,-0.440751316506323,-0.434896471142842,-0.429211584316609,-0.423654693837658,-0.418267745042347,-0.413092683105331,-0.408171453041172,-0.403545999705952,-0.399300221643705,-0.395601924932839,-0.392576961653295,-0.390351183732967,-0.389008489104491,-0.388590821706843,-0.389098171486942,-0.390446620556425,-0.392552250882877,-0.395331144291423,-0.398657428621486,-0.40240523157319,-0.406448680708935,-0.410745811144599,-0.415254657861464,-0.419933255707774,-0.4247815932451,-0.429841612749887,-0.435113302525345,-0.44051274305816,-0.445997968554474,-0.451527013096572,-0.457057910644388,-0.462548695037,-0.467957399994112,-0.473284012962347,-0.478360705892622,-0.483019650620872,-0.487009111179864,-0.490077351490265,-0.492014589206885,-0.492569088030454,-0.491656926933115,-0.489110277090902,-0.484887171109207,-0.478735872265595,-0.469943151442234,-0.458173364023631,-0.441958111484449,-0.418696241390827,-0.384444078177578,-0.334125192373574,-0.262117754430498,-0.160030980948659,-0.0237114267631097,0.145708168934643,0.339753144199257,0.543110360468193,0.730691433423153,0.869520656005792,0.932873444120741,0.90333896730629,0.780791379248974,0.577145587180016,0.322776190131619,0.0577071715237847,-0.182778269609857,-0.371955518501675,-0.501098159735469,-0.571045254438757,-0.595180063265975,-0.591710538952661,-0.576579126541935,-0.561574840368568,-0.551396494922562,-0.547386597039007,-0.547657207433456,-0.54998475599536,-0.552774980219799,-0.555356602122077,-0.557519835945556,-0.559264665093569,-0.560884749819873,-0.562338119557155,-0.563624757521192,-0.564534877642702,-0.564732832257736,-0.564092742866974,-0.562572638601986,-0.56021445622594,-0.557060132444658,-0.553277465441747,-0.549076207189631,-0.544582201915731,-0.539921293792747,-0.535135419249629,-0.530224560817012,-0.525230654817437,-0.520069775986654,-0.514532137474189,-0.508491860067982,-0.501823064505295,-0.494483779162866,-0.486390078522965,-0.477625852397986,-0.468568667465395,-0.459512182664818,-0.450833964577787,-0.442785718204087,-0.435661102341466,-0.429585960361968,-0.424476366367524,-0.420206440569628,-0.416524441600094,-0.413178628045894,-0.409791396915063,-0.406152960550804,-0.402095485097372,-0.397451136655599,-0.392177942817679,-0.386233931133035,-0.379702990643086,-0.372501194967819,-0.364544617685359,-0.3556234707978,-0.345444058576306,-0.333880500630299,-0.320848870373267,-0.306475010402302,-0.290842809429437,-0.274455694574904,-0.25798490829846,-0.241849969951429,-0.226302583466569,-0.21130077582384,-0.196886481654003,-0.182766004790641,-0.168519787494469,-0.153896087367286,-0.138601208128079,-0.122593176526971,-0.105997834655778,-0.0893186091723164,-0.0731428343868572,-0.0580158907278722,-0.0446929278111471,-0.0338032336814221,-0.025514604054035,-0.0196592038495769,-0.0165306902456635,-0.0168003049874957,-0.0213071051639651,-0.0308062401389401,-0.0464304438444891,-0.069228542488074,-0.0990327007426367,-0.13491991403983,-0.175589593173617,-0.219783102748689,-0.265780315042864,-0.311903056145155,-0.356976598249029,-0.399994028894099,-0.439906481742279,-0.476084628871063,-0.508360634618614,-0.536398847911747,-0.56011534071441,-0.579887677252081,-0.596303190943146,-0.609529676726928,-0.619776883357019,-0.627716051849814,-0.634018423191838,-0.639061561426365,-0.643223030567524,-0.646922348445496,-0.650411217482813,-0.653731570849936,-0.656799480155321,-0.659614924669941,-0.662135929793278,-0.664404428588238,-0.666420400247173,-0.668225777782004,-0.669988355714372,-0.671750067007235,-0.673552844599871,-0.675354713718792,-0.677197607257589,-0.679039550398249,-0.680754660611757,-0.682300963037999,-0.683636482796766,-0.684803152678056,-0.685717043918651,-0.68642008927174,-0.686870313783535,-0.68710965017329,-0.687138077299601,-0.686913620161183,-0.68652016527695,-0.685873783773099,-0.685058362142506,-0.684031925331853,-0.682836405966612,-0.68151373666231,-0.68010585002546,-0.67873858634415,-0.677369970520099,-0.676041935138573,-0.674754458934943,-0.673507520640547,-0.672217191294118,-0.670841495777334,-0.669506274350382,-0.668211505739368,-0.666957168671926,-0.665785195723229,-0.664737519472377,-0.663856072503627,-0.663014972028376,-0.662214196800176,-0.661453725581586,-0.66069158330068,-0.659927748742042,-0.65912024685851,-0.658311010307039,-0.65754197176049,-0.65681311006427,-0.656124404082627,-0.655517786544977,-0.654993236357793,-0.654634640140622,-0.654400023003563,-0.654289363928151,-0.65417678038971,-0.653852482203825,-0.653148633062477,-0.651813489001293,-0.649763121470189,-0.646997509645482,-0.643684448121306,-0.640159546911418,-0.636758416071737,-0.633774711857381,-0.631460136724538,-0.629940531642721,-0.629299783786333,-0.629412011157329,-0.63015133181128,-0.631391863859367,-0.632881863935934,-0.634369588734981,-0.635645248857044,-0.636582962656094,-0.637014894707179,-0.63689907118783,-0.636319379880203,-0.635443616328431,-0.634397622306347,-0.633307239664518,-0.632382218022109,-0.631748399389855,-0.631405764327511,-0.631354293480598,-0.63159396758271,-0.632082813613022,-0.632736904798632,-0.633388406772107,-0.633953392953139,-0.634305983016487,-0.634278342894388,-0.633744592468629,-0.632620805572996,-0.630948917685374,-0.628770864395769,-0.6261285814088,-0.623147912235846,-0.620038608197569,-0.616884559202354,-0.613727701438492,-0.610693878911205,-0.60786698191076,-0.605288947015056,-0.602917803247396,-0.600795487458382,-0.598963936638886,-0.597255318698586,-0.595585709382335,-0.593829230738356,-0.591818051120888,-0.589468246727312,-0.58669589391118,-0.583626838408989,-0.580344972273946,-0.576976141568293,-0.573730100210823,-0.570690740755474,-0.567983909773316,-0.565651546320789,-0.563693635787234,-0.56211016374242,-0.560775254404798,-0.559604986023489,-0.55843152934654,-0.557045101468452,-0.555361781212171,-0.553297647597339,-0.550852687532643,-0.548068841973693,-0.544988052080914,-0.541736166911873,-0.538313174199882,-0.53467710804632,-0.530827956612957,-0.526597892900529,-0.521861043975509,-0.516449583283124,-0.510279592184466,-0.503393013803959,-0.495831791497533,-0.48784763807934,-0.479734220445096,-0.471827159574676,-0.464336215155429,-0.457471147119208,-0.451357807955297,-0.445996188868138,-0.441302373624683,-0.437108538556914,-0.4332888140988,-0.429591469409505,-0.425848681599958,-0.421976535735292,-0.417975024837284,-0.413886096041943,-0.40987755829154,-0.406159174647339,-0.40294070844713,-0.40043192330755,-0.398842583126397,-0.398382452084901,-0.399135433115531,-0.401143475593866,-0.404364621495978,-0.408589097710984,-0.413565177577654,-0.418957227041722,-0.424513520037269,-0.429982330799152,-0.435153887709875,-0.440070142525693,-0.444731093464871,-0.449346508278546,-0.4540002934941,-0.45886026364115,-0.464010325874126,-0.469366572284461,-0.47480314143684,-0.480026356836507,-0.484826449999898,-0.488867791232239,-0.491940612698117,-0.493877100733455,-0.494593349691916,-0.494047408101623,-0.492197324821852,-0.489085056734132,-0.484710607209218,-0.477941226143176,-0.466721179182824,-0.448365424640784,-0.418930305824452,-0.372877920278679,-0.303076119786945,-0.203609417975422,-0.0692335903314158,0.100596756692898,0.2998822165074,0.514190659366176,0.720111832383937,0.889117113258532,0.990244556338563,0.999999999999999,0.908650143368369,0.724208161575904,0.470084290451001,0.18147779586313,-0.102426441414159,-0.345841802391988,-0.526784483381857,-0.640303942047169,-0.692609359128862,-0.699475392342588,-0.679361745828578,-0.650644216393779,-0.625279662944275,-0.608050837278655,-0.599419245535824,-0.596657902005143,-0.596368559815584,-0.595278833987218,-0.591542770620496,-0.585076477654627,-0.577138586419149,-0.568819913220152,-0.560791736271023,-0.553641426450622,-0.547536816544293,-0.541974478174455,-0.536325121782724,-0.530420950456792,-0.524303936860874,-0.518099961700546,-0.512018813722011,-0.506144420487193,-0.500560709907352,-0.495225748707723,-0.490055650116195,-0.484882620017492,-0.479538864641748,-0.473940498253036,-0.467961681613748,-0.461560483517835,-0.454778880789541,-0.447700804437263,-0.440452139652177,-0.433116818117179,-0.425778771850224,-0.418479979357981,-0.411178511789432,-0.403832440623882,-0.396273976134816,-0.38837728276744,-0.380058479136901,-0.371233684181627,-0.361944878695896,-0.352234043793442,-0.342310976284745,-0.332385473295705,-0.322625378420744,-0.313114627875835,-0.30376934280668,-0.294589552355387,-0.285365516744439,-0.275929450343279,-0.266029660131461,-0.255540314920315,-0.244419491505638,-0.23245745159625,-0.21957031872515,-0.205632262867608,-0.190685269662591,-0.174771325030762,-0.157974369016537,-0.140546157319721,-0.122906261292658,-0.105474252558042,-0.088585795316334,-0.072492646342761,-0.0573626549842842,-0.0431539016220562,-0.0296146976682951,-0.0166192163216739,-0.00416749256410947,0.00765653068730892,0.0186430487387944,0.0284563951231971,0.0367609031378378,0.0434306750720222,0.0482978591415772,0.05085897257861,0.0503168554798578,0.0454548092758022,0.0351819967169294,0.018449534187736,-0.00512020061729517,-0.0352335686899803,-0.0709256697046814,-0.110518388169699,-0.152669239543944,-0.19607769331934,-0.239904711465138,-0.283395163820617,-0.325919781935956,-0.367436651361266,-0.407358457832448,-0.444888118025711,-0.479438318001696,-0.510631513201376,-0.538257974597106,-0.561520619481726,-0.580335580653777,-0.59537416025812,-0.607139845195672,-0.61617807634325,-0.623076248549291,-0.628715433698464,-0.633683026879877,-0.638104931003447,-0.642107049088554,-0.645815284259645,-0.649271632052195,-0.652476134253098,-0.655428832741042,-0.658045861792409,-0.660327263456074,-0.662189172169636,-0.663589676289362,-0.664486864240851,-0.664712962980028,-0.664268014902339,-0.663026200924445,-0.660945609703749,-0.658026283788987,-0.654310219615636,-0.650007229035764,-0.645243216244498,-0.640227993154684,-0.635129417857795,-0.630115348464117,-0.625353643098106,-0.620928252204099,-0.616881172386489,-0.613212446405061,-0.60992211701516,-0.60692631927339,-0.604183142067407,-0.601608720421622,-0.599203097026993,-0.596882406857085,-0.594562784853051,-0.592202319763786,-0.589759100296458,-0.587233168956669,-0.584540660509351,-0.581765525043035,-0.578949758741119,-0.576219265411691,-0.573574087258807,-0.571056220257148,-0.568791567992234,-0.566780172431722,-0.565022075455274,-0.563307549625875,-0.561552728943826,-0.559589839618078,-0.557251107751331,-0.554368759335499,-0.550942835626464,-0.547141193139574,-0.543047780576231,-0.538872408043517,-0.53474097782563,-0.530863299758723,-0.527323322002381,-0.524204992569667,-0.521634213167557,-0.519569069968468,-0.518009602830006,-0.516913897600998,-0.516156132272361,-0.515526576972813,-0.51485745549907,-0.513980991466778,-0.512771362151117,-0.511102744637781,-0.509017131198087,-0.506724329284828,-0.504434146148873,-0.502566158059166,-0.501456033384925,-0.501397486436418,-0.502558369771308,-0.504854812656209,-0.508119036442008,-0.512015446870293,-0.516292357138378,-0.520740034050608,-0.525190698014525,-0.529602430726698,-0.533975267479308,-0.538351197156407,-0.542730254540565,-0.54711247415401,-0.551455936410168,-0.555718721454868,-0.559858909162767,-0.563792625288985,-0.567435995310422,-0.570747098267102,-0.573767920603559,-0.576540448475796,-0.579106667747924,-0.581592471678477,-0.584081799382659,-0.586616635829098,-0.589155057991815,-0.591655142536684,-0.59403301197348,-0.596162834652785,-0.598002686297387,-0.599468688464804,-0.600602823923589,-0.601447075115931,-0.602085377999583,-0.602643622045005,-0.603163788698091,-0.6038137206015,-0.604593444678183,-0.605544941352797,-0.606710190704241,-0.608047264773409,-0.609514235250275,-0.610943311936913,-0.612334519658763,-0.613603975193281,-0.614751702646832,-0.616071402676446,-0.6178987294186,-0.620317613573228,-0.622992447022231,-0.625587621275512,-0.627809481313667,-0.628902879448082,-0.628154621456733,-0.625438866564853,-0.621259081287816,-0.616202639446582,-0.610563237562475,-0.604802387148395,-0.599339645482958,-0.594342846384691,-0.589644192520719,-0.585075886163711,-0.580679898414391,-0.576540153820741,-0.572740576531693,-0.569239228761238,-0.566036126166308,-0.563047376310981,-0.560105178665177,-0.556999778448228,-0.553563374317313,-0.549712072211115,-0.545445885348712,-0.540764826538869,-0.535710862023837,-0.530493773012839,-0.525197478767402,-0.519989805824578,-0.514870764927183,-0.509924274091931,-0.505234250919049,-0.50067484336748,-0.496288014357607,-0.492073772546547,-0.488157987706875,-0.48466652919164,-0.481767219778723,-0.479795697204867,-0.4790456449412,-0.479684884503263,-0.481797329295541,-0.485382984611218,-0.490315993787158,-0.496260730514111,-0.502755706526243,-0.509465294669987,-0.5161377750592,-0.522563381230371,-0.528658207832321,-0.534506164471136,-0.54027506802068,-0.546006873398696,-0.551659627411867,-0.557149422600918,-0.5622664895513,-0.566759104583206,-0.570333589751975,-0.572822128227831,-0.574098856606735,-0.574121818755746,-0.572974919658417,-0.570700110036144,-0.567423247883281,-0.562976513864473,-0.556604734401661,-0.547510781657523,-0.534939481225937,-0.51725462754682,-0.491771168527755,-0.455300605527589,-0.404444670271155,-0.332826371092212,-0.233775039002952,-0.103095281453198,0.0579123408414543,0.241612237002061,0.433404478312825,0.606564475307032,0.731892362074256,0.784173888361235,0.748976942431271,0.62642739709658,0.43003440206191,0.19008864535344,-0.0579588616977355,-0.282474907248546,-0.461475663375436,-0.586989885937221,-0.660737668560328,-0.693585042657831,-0.700048023759816,-0.693803550119448,-0.684584898198119,-0.676419621184851,-0.670859995049262,-0.667947956974304,-0.666970274564943,-0.666668315074214,-0.666412753060155,-0.666287478077474,-0.666418333162484,-0.666889207145555,-0.667783988498046,-0.669060703799997,-0.670551517742307,-0.671752963904843,-0.67199376013796,-0.670728485478505,-0.667495626307296,-0.662043437885906,-0.654329944359023,-0.644900523360211,-0.634510321410943,-0.62374666931967,-0.613154943718751,-0.603196613222126,-0.594249238427842,-0.586354748851687,-0.579471165998682,-0.573682372589788,-0.568904435650791,-0.565011468049422,-0.561751720808398,-0.55895735233222,-0.556460520720271,-0.554009476079927,-0.551520283598256,-0.548950962010358,-0.546301483602198,-0.543529866523808,-0.540552174792165,-0.537242518294083,-0.533307191254673,-0.528410533774737,-0.522300793368191,-0.514684263430587,-0.505015514018014,-0.492539345694946,-0.477339635657772,-0.459877845444842,-0.440657390180999,-0.420307546270316,-0.400002989847414,-0.381631612159883,-0.365738781175282,-0.352240556946245,-0.340801276217058,-0.330917460116502,-0.321833906471451,-0.312375874430837,-0.301997930589397,-0.290280502853124,-0.276929880442559,-0.261778213896101,-0.244741561228512,-0.225735980244624,-0.204803390077145,-0.182279386569314,-0.158751288433464,-0.135016183409594,-0.111955066734331,-0.0904069796098892,-0.0710851015178694,-0.0546187040675305,-0.0413853356199708,-0.0313849597571454,-0.0244077706646294,-0.020369823893671,-0.0192710825198815,-0.0214051863708513,-0.0276111750985971,-0.0385602728211706,-0.0549237035054856,-0.0772048755916005,-0.105697428151467,-0.140023738599497,-0.178841245782408,-0.221059111482589,-0.265334774283871,-0.31049348802333,-0.355066829501898,-0.397712236936185,-0.437380825341387,-0.473149571155657,-0.504473035312665,-0.530637963262603,-0.551644315717055,-0.567953545583746,-0.580236874901302,-0.589207479463644,-0.595578534978856,-0.600189078607333,-0.603668378206912,-0.606310070802119,-0.608449747191237,-0.610255182725923,-0.611852198849365,-0.613282709255183,-0.614546673735962,-0.615686005876603,-0.616658711523593,-0.61742279647836,-0.617852358811361,-0.617863450400268,-0.617330169244054,-0.61621052100118,-0.61442055745887,-0.611960238071293,-0.6089134299633,-0.605405954089332,-0.601521677547511,-0.597428375117826,-0.593335775421048,-0.589453607077635,-0.585949644866637,-0.582907755884607,-0.580453761083777,-0.578503712206862,-0.577015614859702,-0.575863566980509,-0.574921666533226,-0.574064011511235,-0.573206653785878,-0.572349552954982,-0.571408760967277,-0.570426191350185,-0.569401803834233,-0.56846141973601,-0.567604998892931,-0.566874455046183,-0.566353655844392,-0.566000607468008,-0.565857223857048,-0.56579760364583,-0.565821707080345,-0.565845586797794,-0.565827249364663,-0.565766655280346,-0.565621811291105,-0.565476585772947,-0.565288985666298,-0.565058971858859,-0.564702597654711,-0.564135916467519,-0.563107166444802,-0.561364585850743,-0.558992043828277,-0.556157317333685,-0.553154044984922,-0.550317819375461,-0.548319863991516,-0.547747494767309,-0.548600673950686,-0.550501779330658,-0.552863419620104,-0.555098203683277,-0.556534832849565,-0.55650200860651,-0.554873832585831,-0.551985898877134,-0.548341617117512,-0.544276581736309,-0.539958571958421,-0.5356392748765,-0.531360608540487,-0.527038629650502,-0.522547441249712,-0.517928961951653,-0.513392925943416,-0.509107113764734,-0.505197352311139,-0.501705560992276,-0.498673659424668,-0.496101613589988,-0.493821574303682,-0.4916656925973,-0.489508073566356,-0.487306730218153,-0.48501967578514,-0.482604923727882,-0.480146349272458,-0.47772782787893,-0.475391281399423,-0.473136678080994,-0.47096398641331,-0.468873175131471,-0.46678030552917,-0.464643392995933,-0.462504360864684,-0.460447086569654,-0.458555447804257,-0.456871368678945,-0.455478727413488,-0.454419448649958,-0.453651549610492,-0.453007186255042,-0.45231851481836,-0.451543553346968,-0.450598366322349,-0.449357064663399,-0.447819621108121,-0.446195777905648,-0.444695277594503,-0.443402001470472,-0.442525692657805,-0.442318048421852,-0.442904904792011,-0.44416037502947,-0.445958572698293,-0.448215565512375,-0.450721559958269,-0.453224808986889,-0.455515519705191,-0.45750976106781,-0.459165556189391,-0.460440928501705,-0.461335855600366,-0.461976176936332,-0.462445778438463,-0.462912454049767,-0.46341813650506,-0.464046712711972,-0.464840116062987,-0.465714418747458,-0.466669600977311,-0.467579781764528,-0.468444941991598,-0.46918115518892,-0.469788402915543,-0.470350574760592,-0.47086765296537,-0.471465481648809,-0.472269905274313,-0.473448722495851,-0.474959963090265,-0.476258211044726,-0.476840004540537,-0.476285789799062,-0.474176013393157,-0.470091122248199,-0.46394719440163,-0.456499385141741,-0.448586757801823,-0.440628837623204,-0.432961242514624,-0.425961544587477,-0.419881454777276,-0.414637053620248,-0.410018560478096,-0.4061098719868,-0.40299488514346,-0.400673589617176,-0.399104021594365,-0.398160309934376,-0.397758537704351,-0.397730880645126,-0.397951468706001,-0.39833638604501,-0.39880171718433,-0.399347454700101,-0.400141406912206,-0.401645059418824,-0.404361852027565,-0.408711317221019,-0.415071034001538,-0.423734674046337,-0.434576370948811,-0.44675704330463,-0.459311748538999,-0.471401405975316,-0.48227084299005,-0.491206841167575,-0.497873767058335,-0.502649202936964,-0.505994639129508,-0.50832961247845,-0.509989752497309,-0.511352642904496,-0.512628052398549,-0.513732073122972,-0.514580797579226,-0.515090318625936,-0.515176729478053,-0.514630262171511,-0.513283102941586,-0.510967438377099,-0.507473501574588,-0.502297849068329,-0.494223822381035,-0.480985917264162,-0.459941045213821,-0.427397271952436,-0.378446002048189,-0.30742347120671,-0.2089595923902,-0.0789848480916961,0.0832978789598688,0.272812167422344,0.476216688187187,0.67131785055357,0.829922663677733,0.922579521039253,0.925500584837978,0.82891060111486,0.641326191925342,0.38762597847949,0.104645427437818,-0.16872425646421,-0.397661391757877,-0.562405727581931,-0.660481997455988,-0.701539596365648,-0.703618688571443,-0.685388746315067,-0.66308591914535,-0.646779141727091,-0.639992549235403,-0.641173861922093,-0.646798969629949,-0.653553531720976,-0.659381823194454,-0.662773519322548,-0.662931511027089,-0.660610981773423,-0.656776884533622,-0.652226357180498,-0.647588722484962,-0.643115718889249,-0.638891269728303,-0.634999298606312,-0.63123005248019,-0.627373778570501,-0.623262678203433,-0.618980676032015,-0.614611696964291,-0.610197712315558,-0.605864601339847,-0.601612382002825,-0.597399118668394,-0.592931152871533,-0.587579195625554,-0.580881773556824,-0.5725452289016,-0.562611534882133,-0.551206572634537,-0.538791854274472,-0.526500153652432,-0.51517056791961,-0.505390471369397,-0.497243792365125,-0.490772505629712,-0.485808816862995,-0.481807347359037,-0.478348580140516,-0.475012998420812,-0.471674762514252,-0.46820803291887,-0.464486970312878,-0.460343781706297,-0.455568720437384,-0.449993993858689,-0.443367901798976,-0.435354836559606,-0.425661144445341,-0.414119033450324,-0.400686573254392,-0.385615510598664,-0.369325407747362,-0.352277780949622,-0.334808285056477,-0.317084759672275,-0.299191136840542,-0.280959625660924,-0.262096573819843,-0.242560052190062,-0.222643762516503,-0.202851175877956,-0.183475994235037,-0.164476288891879,-0.145852085095646,-0.127477546653381,-0.109100975928133,-0.0906384907488014,-0.0723837936303473,-0.0551759871491701,-0.0396444047324537,-0.0262086106542581,-0.0152462154108844,-0.00705092187214134,-0.00183252527742444,0.000325040613021632,-0.00112365030544664,-0.00672402418493406,-0.0170215072210843,-0.0323937102698786,-0.0529665211540751,-0.078656058504109,-0.108791087150799,-0.142910141173005,-0.180300031600703,-0.220037800255896,-0.261284396662456,-0.303032954973304,-0.344570286259543,-0.384973432368738,-0.4234452966796,-0.459272690253304,-0.491868285674447,-0.520980386271305,-0.546357295353435,-0.567957085431957,-0.585905644370912,-0.600496675383468,-0.612023881648854,-0.620990735532683,-0.627900709359095,-0.633215321562198,-0.637312182837516,-0.6405269499831,-0.643153325895833,-0.645191336498838,-0.646641007651555,-0.647460411301282,-0.647565665479561,-0.646914841988213,-0.645507966395762,-0.6434289718787,-0.640803745373134,-0.637716219881634,-0.634376189849025,-0.630867588090008,-0.62727434732018,-0.623638446307799,-0.619959909870402,-0.6163226704059,-0.612684798665146,-0.609130226817553,-0.605700933068531,-0.602438895501065,-0.599428045917313,-0.596710362145779,-0.594327821882975,-0.592322402690297,-0.590694128146104,-0.589443021687482,-0.588527152762393,-0.587904590671495,-0.587575358410004,-0.587455571130302,-0.587545251518329,-0.587802468256258,-0.588185289864502,-0.58865178469892,-0.589201974792896,-0.58987783585462,-0.590595481885142,-0.591312980555015,-0.591988399356875,-0.592621759447707,-0.593129174111866,-0.593468710293062,-0.593682342436738,-0.593812044798036,-0.593857837594624,-0.593735833159562,-0.593488005163126,-0.593072419386485,-0.592447141409153,-0.59165414429648,-0.590777354752741,-0.589900699274254,-0.589024196457733,-0.588147864687956,-0.587313675980666,-0.586437740601414,-0.585436168598184,-0.584267023644429,-0.582888369192508,-0.581342176161632,-0.57967041524658,-0.577957010760912,-0.576285886790599,-0.574740967192515,-0.573406175592978,-0.572281527696698,-0.571283131285412,-0.57036904775103,-0.569455384404722,-0.568542156010164,-0.567545469403082,-0.566507292714231,-0.56551154767868,-0.564558248100331,-0.563731315230216,-0.562946854696662,-0.562288787262959,-0.561757125757622,-0.561309928918431,-0.560947209081336,-0.560627024490143,-0.560433294675161,-0.560366031228521,-0.560341337803648,-0.560401179338873,-0.560587520522551,-0.560984279637488,-0.561633420870978,-0.562493000469695,-0.563688889808381,-0.565179144631104,-0.566921820430401,-0.568791064757558,-0.570661024912207,-0.572531709476808,-0.574235311402965,-0.575729884925281,-0.576973484027062,-0.577966116285338,-0.578707789026311,-0.579198509325658,-0.579606099388164,-0.580098381168848,-0.580843176373416,-0.582050260303577,-0.583929408012775,-0.58660648661714,-0.590123455296133,-0.594354457603593,-0.599173636847752,-0.604371228402379,-0.609653559707607,-0.614768911805265,-0.619465565494978,-0.623701570559235,-0.627434976540293,-0.630623832741242,-0.633435957451193,-0.635997214877512,-0.638391515147004,-0.640660814307144,-0.642847068172174,-0.645034186169233,-0.647138262115628,-0.649075389599506,-0.650845569670937,-0.652280987774487,-0.653297736819651,-0.653811909492788,-0.65382350594836,-0.653416433810578,-0.65259069279581,-0.651598005472857,-0.6504803249717,-0.649363511899035,-0.648247565116012,-0.647174437119383,-0.646186080198593,-0.645156631058446,-0.644128041579641,-0.643016401907046,-0.641821709675849,-0.640418100789538,-0.638763618646118,-0.636816306450615,-0.634492253372438,-0.631707548392409,-0.628462187994647,-0.624798122324014,-0.620631439809146,-0.615626505630318,-0.609573546325185,-0.602514511325625,-0.594449396046417,-0.585462103422142,-0.575762397754468,-0.566231304697298,-0.557498126673257,-0.549814581341777,-0.543306524670576,-0.53797395093825,-0.533858808116156,-0.530583505578036,-0.527938267930139,-0.525881135013896,-0.524454054218969,-0.523698972796332,-0.523573930171355,-0.524036965636192,-0.525004164507729,-0.526349658130361,-0.527989531568428,-0.529881823609028,-0.531900665230381,-0.534046048828767,-0.536276012842099,-0.538590549442424,-0.540947696849163,-0.543263539331989,-0.54562197643783,-0.547939092235209,-0.550214878386078,-0.5524493264591,-0.554642427932578,-0.556836128042209,-0.558904556559925,-0.560931612400217,-0.562959240554165,-0.564987432092396,-0.566890316478394,-0.568416161571468,-0.569313235164162,-0.568994174226667,-0.566703800289055,-0.561561073289062,-0.552978630023243,-0.540536922615466,-0.523690541606138,-0.501138908282856,-0.470994090062637,-0.430193446667385,-0.373702507075259,-0.295060369506254,-0.186547516804408,-0.044052462439786,0.131208141851016,0.330465952286531,0.536519902296319,0.722141956414946,0.854398356295526,0.905431758825481,0.858418682088069,0.714366028220317,0.489342129652103,0.217875010533739,-0.0579136590750841,-0.300936670498758,-0.483462522464929,-0.598023420760321,-0.649821632321132,-0.655974316028995,-0.637835969111693,-0.612397888957835,-0.593588742308914,-0.584932642418527,-0.584961195036712,-0.590695667532563,-0.598276296569102,-0.605605380329456,-0.610753032416255,-0.613677289491731,-0.615007449780442,-0.614743503882324,-0.612885442447424,-0.609517163867947,-0.604722566591005,-0.598417733741702,-0.5906446100392,-0.58165490948867,-0.571742300004293,-0.561116541877057,-0.550113257001075,-0.53915197503097,-0.528736133384034,-0.519117446483818,-0.510421767296698,-0.502732995023591,-0.495925259722729,-0.489830737690953,-0.484113789931243,-0.478438777533951,-0.472595923213185,-0.466375449774238,-0.459609533960271,-0.451920583385222,-0.442972959604511,-0.432640793496084,-0.42084016988286,-0.407613035224057,-0.393169151461675,-0.378179772935854,-0.363316154093446,-0.349039780265472,-0.335728229203097,-0.323633217234296,-0.31275473773084,-0.302757153420064,-0.293178965610347,-0.283432814192444,-0.272973293020068,-0.261338903755973,-0.248403778942104,-0.234209866621504,-0.219092791873928,-0.203807718351423,-0.188941994451929,-0.17504101485478,-0.162188682073517,-0.150259129525767,-0.138790859999716,-0.127070653344642,-0.114469197230318,-0.100357179458198,-0.0843989648759233,-0.0665106415332462,-0.0469439283723737,-0.0259924983148918,-0.00411783979685242,0.0181346509202773,0.0401356697490644,0.0612978663100542,0.0812017054657542,0.0993856980960973,0.115472262632499,0.129251632747137,0.14051404197334,0.149133631394943,0.154858680421935,0.157353560635063,0.156240689630475,0.150639038726558,0.140254932929145,0.124878604793608,0.10463591749374,0.0800722725113995,0.0516911173435262,0.0205832531745129,-0.0128317804682774,-0.0483861672661735,-0.0860379525745609,-0.125871043422671,-0.167465900841045,-0.210277124464631,-0.253591498687654,-0.296569946508089,-0.337869944923912,-0.376400694139441,-0.411490932944173,-0.442721123333033,-0.469587819747315,-0.491293899850047,-0.508300856783752,-0.521237999204544,-0.53073463590222,-0.537462029644434,-0.542217304865641,-0.546007355356034,-0.549251721209229,-0.55207626573523,-0.554564898528557,-0.556885437001877,-0.559037883316244,-0.561106147449133,-0.563048277969452,-0.564864277415887,-0.566596102295952,-0.568117893860925,-0.569471608863395,-0.570657250332152,-0.571716775260775,-0.572734094606571,-0.573709211755022,-0.574767991742779,-0.575868484342788,-0.577010693287241,-0.578194622421583,-0.579336368013681,-0.580393980287076,-0.581283555730113,-0.582047052473971,-0.582642521067306,-0.583028012164605,-0.583245484214531,-0.583336895768966,-0.583386159326505,-0.583393279796652,-0.583442169877739,-0.583616742365915,-0.583917002464118,-0.584384909315139,-0.584978514465746,-0.585739777244542,-0.586626749381249,-0.58755552885008,-0.588568075247565,-0.589622440566979,-0.590676676886507,-0.59168883636776,-0.592616971254277,-0.593544995404481,-0.594430961221254,-0.595274875029695,-0.596118697075593,-0.596962433834265,-0.59784804569865,-0.598691631598494,-0.599409290533263,-0.599959075415408,-0.600299039223993,-0.600345281158318,-0.600055854325993,-0.599430765741382,-0.598511976324031,-0.597299493207461,-0.595835277427247,-0.594203243919438,-0.592445353829358,-0.590603568354851,-0.588761802589531,-0.587003971676402,-0.585330083116645,-0.583740144457696,-0.582276117136503,-0.580979962633148,-0.579851688624471,-0.578891302827335,-0.578182720686717,-0.577767903839704,-0.577604906269136,-0.577651781991705,-0.577866585056429,-0.578165415698306,-0.578380466491977,-0.578469791574313,-0.57843339895327,-0.578229342816751,-0.577815677375937,-0.577234364553443,-0.576611273981843,-0.575988367622925,-0.575449561300696,-0.575120724699927,-0.575169681364722,-0.575638393317802,-0.576526868748734,-0.577793162012514,-0.579311419783352,-0.581039696432562,-0.582810184803089,-0.584580939277056,-0.586310014239955,-0.587997417924125,-0.589727066252237,-0.591457013611881,-0.593271175923178,-0.595211515258206,-0.597319993684542,-0.599638573263994,-0.602125308361708,-0.604780207179387,-0.607519370219603,-0.610258897974226,-0.612914890923224,-0.61540344953348,-0.617640674257617,-0.619584619377668,-0.621277246848745,-0.622760518608285,-0.624076396574927,-0.625266842647423,-0.626457726393189,-0.627691009667966,-0.628924746614766,-0.630116991352472,-0.631225797974825,-0.63220922054941,-0.632983359271855,-0.633464314309671,-0.633694047335758,-0.633672566148177,-0.633399878514053,-0.632917946013476,-0.632226776348969,-0.63149419256871,-0.630762156151929,-0.630156536232162,-0.629761248061957,-0.629576299167243,-0.629685604725808,-0.6300052644976,-0.630451378203232,-0.630898091678419,-0.631261504562877,-0.631457716454782,-0.631318919220431,-0.630719258528008,-0.629574833846914,-0.627801744602288,-0.625399997864005,-0.62241155450123,-0.618962283026625,-0.615136098061298,-0.611058868023854,-0.606814507440198,-0.60215130002924,-0.596817529460923,-0.590603433200511,-0.583467064042549,-0.575324520886268,-0.566217764114388,-0.556692200196026,-0.547377143238053,-0.538734091915738,-0.53093086793787,-0.524177246804904,-0.518557142429285,-0.513902745600609,-0.509920385519713,-0.506442252867232,-0.503510307492899,-0.501082601501473,-0.499159140786882,-0.497739931187093,-0.496866932328641,-0.496498196091883,-0.496591774300369,-0.497105718720581,-0.497998081061684,-0.499184959130467,-0.500582450675939,-0.502106653389109,-0.503631711057964,-0.505115675101727,-0.506516596881035,-0.507834481542581,-0.509111288018951,-0.510430929028458,-0.511877317230181,-0.513450457534186,-0.515108400946208,-0.516809198412357,-0.518426993129356,-0.519835928234079,-0.520868192958628,-0.521439884164706,-0.521509052498706,-0.521033748546819,-0.519972022834962,-0.518323879673535,-0.516131277157359,-0.513352265631172,-0.509986849224035,-0.505867216625202,-0.50040601801516,-0.493183718893079,-0.482815846266655,-0.46728861941065303,-0.443287688349772,-0.406198133858637,-0.350649867444448,-0.269300969847205,-0.155480783263344,-0.00625254201756575,0.174188366006778,0.375101753195145,0.576979078426354,0.751543447072571,0.867455333894748,0.899416567368442,0.836267421733965,0.681909601582386,0.455348195700331,0.190314092466577,-0.0753922967321389,-0.307998129551315,-0.485813270894068,-0.603845215841313,-0.666666936032471,-0.688920325803336,-0.686338079394726,-0.673226460263345,-0.659906116547816,-0.649775311931354,-0.643966802416756,-0.640844390188603,-0.638771877371378,-0.636784327546604,-0.6342104811495,-0.630588847779363,-0.625625752354782,-0.619782688941126,-0.613982643836836,-0.608519295608137,-0.603434599692428,-0.598812465312044,-0.5948626631639,-0.591459333126499,-0.588140984259935,-0.584823710167839,-0.581549465928464,-0.578360206560229,-0.575213979332087,-0.572068831453154,-0.569008671607169,-0.565949593038745,-0.562807688932642,-0.559331237034468,-0.555352422719585,-0.550619523613809,-0.544796909593385,-0.537758719698699,-0.529463000599789,-0.520119521975589,-0.509938053444971,-0.499296179945991,-0.488697347891015,-0.478561095942579,-0.469181101168518,-0.460641271352265,-0.452983560372076,-0.446207968200966,-0.440146679372176,-0.434631878358389,-0.429453795726829,-0.424528523518462,-0.419730199868636,-0.414807101317352,-0.409675319722909,-0.404167039192896,-0.398240305308186,-0.391685348209098,-0.384040674905653,-0.374970653880831,-0.364223561245646,-0.351757442273479,-0.337362526796583,-0.321038813809327,-0.30324779453699,-0.284325098608147,-0.264186817140795,-0.242623179655953,-0.219760046370523,-0.195807185128231,-0.171016317554652,-0.145890888281152,-0.121311926479186,-0.0981185074119425,-0.0768979832100772,-0.0579440290267274,-0.041256643037338,-0.0265841002843066,-0.0135068603664449,-0.00173124435253529,0.00886861137403327,0.0181248935809918,0.0256180660321989,0.0307188233326501,0.0324622293942125,0.0295477174358178,0.0210942591904106,0.00655645721550768,-0.0142335012617841,-0.0412756135686646,-0.0739405692934225,-0.110801934905955,-0.150684999878053,-0.192289192079819,-0.234733477762117,-0.277052915418529,-0.318618194233352,-0.359051726391743,-0.397514431717591,-0.433628722259334,-0.466597471548547,-0.495791368427209,-0.520539147823406,-0.540295406130404,-0.555647493482115,-0.567140806097957,-0.575572463196385,-0.581697630080965,-0.586313425829817,-0.590216969450602,-0.593534118363225,-0.596264868382299,-0.598367261406603,-0.599799339263722,-0.600561097554689,-0.600610577964174,-0.60007363748441,-0.599118086880575,-0.597869783000985,-0.596454582621763,-0.594998342446685,-0.593710826796672,-0.592633984540734,-0.591725856785467,-0.591028392254208,-0.590541585752445,-0.590181524322882,-0.589864294934965,-0.589505984484773,-0.589064633639741,-0.588456329148925,-0.587723019222198,-0.586906651995708,-0.58600722168699,-0.585150583974179,-0.584462594461496,-0.5840691086792,-0.583928166704271,-0.584081716229294,-0.584487797183157,-0.584978587886224,-0.5854282204296,-0.5856688729855,-0.585658585186542,-0.585271488901668,-0.584465623615461,-0.583282936428179,-0.581681466676539,-0.579745115157871,-0.577515828750912,-0.575077508105537,-0.572597961487662,-0.570119135555261,-0.567724930737754,-0.565415339701678,-0.563190355040467,-0.561091923119417,-0.559078082541392,-0.557190779526276,-0.555471960221518,-0.553921616857508,-0.552539741592611,-0.551326326513382,-0.550197455945165,-0.549153121831619,-0.548109408355694,-0.547024353474364,-0.545855995074091,-0.544520417126304,-0.543059565066987,-0.541389522728083,-0.539552235406752,-0.537631602176075,-0.535753475885425,-0.534001755471197,-0.532460339802024,-0.531255081523993,-0.53046987937143,-0.530062770477686,-0.529907884220403,-0.529879349911614,-0.529809342953388,-0.529530038683144,-0.528915566218965,-0.527965916149751,-0.526723032846109,-0.525312768305713,-0.523860974464221,-0.522535457040664,-0.521462067848389,-0.52072470479566,-0.520365311886265,-0.520383879220145,-0.520696489149215,-0.521177270122832,-0.521742304378107,-0.522307674095766,-0.522873369090482,-0.523439379121949,-0.524131555430061,-0.525033795356374,-0.526146088500036,-0.52746842440819,-0.529000792576757,-0.530659274761582,-0.532317998824068,-0.533893046421627,-0.535342453008518,-0.536624253991873,-0.537570623198096,-0.538223503632295,-0.538624838255068,-0.538816569983405,-0.538882595536418,-0.538864857746629,-0.539015068629822,-0.539375170937802,-0.539987107383454,-0.540850866796901,-0.541882530281669,-0.543082086594971,-0.544197801390159,-0.545103801821124,-0.545632261164059,-0.54574121419778,-0.545430649515151,-0.54470055567933,-0.543718736604135,-0.542569088486219,-0.54146136903027,-0.54047947438121,-0.53970730065978,-0.539186790118857,-0.538875977299782,-0.538816804412791,-0.53892535211409,-0.539159654886303,-0.539519701039664,-0.539921571178751,-0.540407207427788,-0.540976598052582,-0.541629731306562,-0.542324641587196,-0.542977409437225,-0.54358802308037,-0.544030609198494,-0.544221248312138,-0.544117974781795,-0.543762730654008,-0.543113550283374,-0.542212375713117,-0.541143102831567,-0.539905719839005,-0.538500214938613,-0.536884622492974,-0.535142838404671,-0.533232897048699,-0.531070878963436,-0.528572864696802,-0.525696888652422,-0.522400985246154,-0.518559281217799,-0.51412981101174,-0.509196470623116,-0.503885109909545,-0.498321578747678,-0.492631727034557,-0.487025312378634,-0.48162818472186397,-0.476440332496259,-0.471503698004547,-0.46677631588709,-0.462216220812908,-0.457697539791416,-0.453178307553088,-0.448616558861201,-0.443928374668396,-0.439071789807701,-0.434046792993917,-0.428979234514634,-0.423953010852336,-0.419177880065062,-0.41490555409814,-0.411513606475208,-0.409295703075489,-0.408503555979983,-0.409388877317655,-0.412119471577167,-0.416779235608241,-0.423158389398919,-0.43121496836994,-0.440781146462352,-0.451605189983683,-0.463225596074826,-0.475055000401022,-0.486757761756562,-0.497704562083473,-0.507391944921029,-0.515400361562256,-0.521729801813797,-0.526715886307578,-0.530526420364279,-0.533538978597994,-0.536005274158966,-0.538218974114142,-0.540222022534707,-0.541888548186981,-0.543176587602599,-0.543960269700473,-0.544155677322487,-0.543636939545093,-0.542236231680523,-0.539743775278004,-0.535949791969776,-0.530350826558547,-0.521814116260116,-0.508367821480447,-0.487452748885744,-0.455670628334684,-0.408280666741722,-0.339786901905689,-0.243812340976449,-0.116413314196747,0.0432912174244043,0.2304346160422,0.431256028613505,0.622974525361341,0.774921853583974,0.858905037324307,0.85310808493708,0.749895404224304,0.559377879243927,0.308615747257287,0.0354933373844986,-0.222986052101146,-0.436825415117768,-0.591089175981168,-0.685064112509345,-0.729700171489396,-0.740897853507266,-0.734725474639188,-0.723517458884307,-0.713441015165983,-0.706635783418405,-0.702514403776797,-0.700069978043279,-0.698001931222096,-0.695848765330501,-0.693568520951297,-0.69116119263019,-0.688626775031668,-0.685923309094881,-0.683176651258408,-0.68026093501272,-0.677092247814563,-0.673544723397942,-0.669618357154005,-0.665229236907542,-0.660293450607197,-0.654810994015667,-0.6487818630206,-0.642164099790306,-0.6349577004639,-0.627288522841428,-0.61924047100507,-0.611065264543683,-0.602930715484331,-0.595046589827157,-0.587538746011333,-0.580491088760261,-0.573987522926763,-0.567944138114152,-0.562277024055843,-0.556944224460489,-0.551777921632996,-0.546652251854085,-0.541399397690912,-0.535851541842131,-0.529882820982942,-0.523073695006739,-0.515214393163134,-0.506011237144399,-0.495254456464891,-0.482986003840467,-0.469331739809329,-0.454962925025136,-0.440424958739971,-0.42634714802851,-0.413274892408783,-0.401417960773292,-0.390860260613112,-0.381266161104157,-0.37238393924498,-0.363794056787818,-0.355118929462628,-0.346022926977011,-0.336212373016112,-0.325477499087329,-0.313356813761627,-0.299304918052665,-0.282944228485546,-0.264023023251819,-0.242289580674817,-0.217534133054257,-0.190260128183123,-0.161600321657769,-0.132477699981262,-0.103815249787195,-0.0765779116842039,-0.0518984417901027,-0.0300705194558845,-0.0109263318687424,0.00565997981046451,0.0197303666027759,0.0312848255563507,0.0404072612813423,0.0467200859676768,0.0495939886095995,0.0479801196268597,0.0412072139167613,0.0287298677857397,0.0101285389498704,-0.0148904534646052,-0.04590757509327,-0.0813285840399606,-0.119810961600065,-0.160012189191023,-0.200547794506912,-0.239865489983377,-0.277377926607135,-0.313630509294618,-0.348833012322638,-0.382901533172543,-0.415836077132918,-0.447888372678175,-0.478261302278446,-0.505570394691885,-0.529144394153349,-0.54894135268402,-0.564919322418368,-0.57691049406893,-0.585670043046026,-0.592288775629508,-0.597437959761214,-0.601453232733804,-0.604670231948505,-0.607466548759106,-0.609884143867751,-0.611797162703375,-0.613163658489771,-0.614025592244726,-0.614341017399878,-0.614151895179116,-0.613542140752871,-0.612637623237226,-0.611564211848192,-0.61040582205598,-0.609288323273725,-0.608253677322098,-0.607259938428381,-0.606265160915164,-0.605227399199403,-0.60410470779147,-0.602939048983834,-0.601772385160459,-0.60064667879584,-0.599645846298845,-0.598769896477283,-0.598060792071373,-0.597518542063124,-0.597101201675338,-0.596850733905076,-0.596725194143375,-0.596682637863886,-0.596597212932228,-0.596385021139431,-0.596004118200927,-0.59537060606589,-0.594400586761035,-0.593094070079239,-0.591493019733692,-0.589597445667232,-0.587407357896136,-0.584964720353908,-0.58235345089025,-0.579657467425201,-0.57696068794811,-0.574347030516594,-0.571900413255506,-0.569620846666255,-0.567550295160227,-0.565646815523287,-0.563868464604383,-0.562215253159324,-0.560645238160102,-0.559200384328314,-0.557838748754847,-0.556602296278114,-0.555449084103748,-0.554295215648377,-0.553140702073055,-0.551901646902948,-0.550620015250397,-0.549253864589798,-0.547887113980661,-0.546561728687313,-0.545319674022686,-0.544202915347298,-0.54316951037859,-0.542219470724368,-0.541310854192144,-0.540485626322583,-0.539659891164392,-0.538833660497409,-0.537964992297136,-0.537011944578557,-0.535974529239955,-0.534768850527457,-0.533436874258134,-0.531936658594913,-0.530352123269688,-0.528767188047871,-0.527223818882595,-0.52580593560337,-0.524513550380653,-0.523388629259334,-0.522347276778486,-0.521305597504864,-0.52022164987676,-0.519011538513407,-0.517675275748487,-0.516212873939538,-0.5146662993118301,-0.513035564267781,-0.511320681230845,-0.509647524179026,-0.508100013264679,-0.506762068658397,-0.505717610548091,-0.505134466827708,-0.505054603872222,-0.50539412653672,-0.506069139689957,-0.507079655903087,-0.508341780069493,-0.509729663248707,-0.511243318044797,-0.512882757071023,-0.514647992948955,-0.516413176773132,-0.518178321179106,-0.519943438808111,-0.521624634616557,-0.523263875099262,-0.524861172909318,-0.526458494546868,-0.528055852668618,-0.529569352242166,-0.530999005924437,-0.532177010991924,-0.533061426253581,-0.533568356670717,-0.5336558610458,-0.533365905866447,-0.532698503770142,-0.531737575077874,-0.530483132414037,-0.529019096084895,-0.527345478698492,-0.525588154387937,-0.523789089586503,-0.522032204561278,-0.520401419567548,-0.518896747158357,-0.517560153718171,-0.516265790237985,-0.515055623073091,-0.513929664718188,-0.5128459738066,-0.511846516643944,-0.511015213362537,-0.510477937920604,-0.510234702722233,-0.510285520151049,-0.510672356414261,-0.511395223852252,-0.512412180937802,-0.513639332275321,-0.515076690134536,-0.516682312915269,-0.518456212836302,-0.520356448244977,-0.52234107746125,-0.524452066466563,-0.526605519678985,-0.528633633797267,-0.530116882420803,-0.530677692962603,-0.529896538958892,-0.527395847757986,-0.522965862053993,-0.516732455265325,-0.509157131533936,-0.500743348810827,-0.492036518855278,-0.48349814569963,-0.475463871803702,-0.468017616519562,-0.461243299159688,-0.455140931306555,-0.449752478346331,-0.445035997933648,-0.440991501525293,-0.437619000534615,-0.434708737106657,-0.432092907186302,-0.429519798983033,-0.42682160834944,-0.423872484935619,-0.42067243987803,-0.417305391953899,-0.413939167580428,-0.410825500814013,-0.408300033349452,-0.406656452984696,-0.406146493620057,-0.40702188910223,-0.409408511689037,-0.413306372048625,-0.418505711569024,-0.424754817736616,-0.431718070290513,-0.439017895066554,-0.44631867168614,-0.453410641245047,-0.460209906312608,-0.46667452324125,-0.472720594476029,-0.478348130088252,-0.483473232395374,-0.487928095960153,-0.491544915279455,-0.494155884783407,-0.495635152679368,-0.495856867106265,-0.494779083823372,-0.492485720054278,-0.488976785261924,-0.483958611923643,-0.477347301668127,-0.469142863740101,-0.458674045792689,-0.444136841593528,-0.42313989100654,-0.392452756922127,-0.346789263756516,-0.279017266674973,-0.181207497711385,-0.0487030887148665,0.118118367168727,0.311621261722266,0.516786110123798,0.708734274103101,0.856084269528168,0.931314366076543,0.915419464011212,0.805043247800847,0.610841986172768,0.360337393561602,0.0902810303530569,-0.164379558302682,-0.373563473161842,-0.522125383642814,-0.609352081687378,-0.646319389536127,-0.64922149840122,-0.634168691707811,-0.61639022204153,-0.605032034389913,-0.602191827710597,-0.605981685602198,-0.613968291578557,-0.623718329050439,-0.633050204393496,-0.640495539240323,-0.645676755082882,-0.649139257892259,-0.651050868928309,-0.651621363186885,-0.65089270017479,-0.648906839288096,-0.645873555190461,-0.642002622432901,-0.637629676987288,-0.632880585486843,-0.628007075983734,-0.623135014879214,-0.618264406922663,-0.613353302900286,-0.6081919380997,-0.602696409222732,-0.596740859005196,-0.590409199284872,-0.583743387931651,-0.57691124422588,-0.570122541167791,-0.563545097786935,-0.557346732986081,-0.551527450161012,-0.546087252578894,-0.540858327998082,-0.535714817891312,-0.53048890975516,-0.525054744798783,-0.519370371787847,-0.513435793198821,-0.507376872907737,-0.501277520810032,-0.49526360050932,-0.489251206247617,-0.482694939835558,-0.475007449099755,-0.46585310479568,-0.4550640929172,-0.442556507006106,-0.428582071220213,-0.414189632625561,-0.400511945833684,-0.388094411483701,-0.377146799310444,-0.367711063522966,-0.359577435114132,-0.352032698790944,-0.343986054508251,-0.334640378985126,-0.323492225704138,-0.310331824910638,-0.295033314387949,-0.277680600991139,-0.259070806784166,-0.239959099832457,-0.220681109598876,-0.201236834632712,-0.181710181017242,-0.16210114698983,-0.141990192182767,-0.121419268363878,-0.101017680970407,-0.0814986429706114,-0.0634495056391099,-0.047709343159723,-0.0359563064524204,-0.02911337706967,-0.0276839979545006,-0.0320037965089414,-0.0426601230417548,-0.0599466507853372,-0.0825628067058834,-0.109627556054311,-0.140553540831409,-0.175130987477095,-0.212772537663304,-0.252639109828105,-0.294604837606226,-0.338501900621993,-0.383449262971935,-0.428020488603788,-0.470747187454084,-0.510496600051296,-0.54626182829153,-0.576700343145323,-0.601350646157234,-0.620506407911243,-0.634880837272064,-0.645229096781663,-0.652348302659172,-0.657455109404202,-0.661388586745229,-0.664652173484396,-0.667455631342334,-0.669924814182286,-0.672101668010155,-0.673860323284935,-0.675200771832548,-0.67603909762186,-0.676375292144102,-0.676251300568222,-0.675709067896248,-0.674874446653152,-0.673747427662984,-0.67241190927324,-0.670951789665511,-0.669325105321338,-0.667531846401836,-0.665530049058416,-0.663277749278,-0.660691029038617,-0.65772792399949,-0.654472331191144,-0.650924239791805,-0.647083638817563,-0.643118332502201,-0.639154171073677,-0.635317004599544,-0.631648775297945,-0.62823337907273,-0.625154711669324,-0.62228689945134,-0.61954602247024,-0.616764252931645,-0.613899624420229,-0.610910170366085,-0.607795877890398,-0.604640641651141,-0.601612263843989,-0.598878546513612,-0.596523383865004,-0.59463066995411,-0.593200390999213,-0.592274486916437,-0.591769035941551,-0.591642070010347,-0.59176771322532,-0.591936181856826,-0.592021599723553,-0.59181418281446,-0.59123000851412,-0.590269061759178,-0.589057188884469,-0.587846097624351,-0.586803587889966,-0.586139413305082,-0.585979419673054,-0.586323591133442,-0.5870880040083,-0.588188734493316,-0.589457950969693,-0.590601960160885,-0.591243160978994,-0.591129813750473,-0.590136040217762,-0.588135962006487,-0.585213469851247,-0.581662223597323,-0.577859790667965,-0.574057876842057,-0.570424280100725,-0.567042890629164,-0.563955644663292,-0.561162524491625,-0.558663512301986,-0.556458590183429,-0.554589693973001,-0.55309875941289,-0.552027722152419,-0.551376563905245,-0.551103312451398,-0.551207949328988,-0.551522640612194,-0.552005413827111,-0.552530388729789,-0.552929731153208,-0.553161468388738,-0.553141673809058,-0.552996189939299,-0.55272499770073,-0.552370031792305,-0.552057134537768,-0.551828240508676,-0.551851145750832,-0.552125830872889,-0.552652276427997,-0.553430462916185,-0.554376463097133,-0.555322441992583,-0.55601665688879,-0.556333226563073,-0.556230177441469,-0.55562358206677,-0.554513420635488,-0.553067488690019,-0.551411627897088,-0.54967167989512,-0.547931532451993,-0.546400934846904,-0.545205728648866,-0.544387847719321,-0.543947272059589,-0.543883981658322,-0.544156002649338,-0.544637453469462,-0.54524440639566,-0.545809026013268,-0.546331292287597,-0.546685323652911,-0.546871100084052,-0.546888601564711,-0.546779761934976,-0.546754330428534,-0.546938148606502,-0.54754096573946,-0.548688623430936,-0.550465009464992,-0.552828150119362,-0.555358487099313,-0.557552554454164,-0.559074701648994,-0.559589278188153,-0.558802587462877,-0.556588748288547,-0.553367279510858,-0.549725515405251,-0.545915159541876,-0.542145961702134,-0.538585717881475,-0.535360270292208,-0.532343738142196,-0.529368286861756,-0.526391943485736,-0.523498596656307,-0.520814088936115,-0.51838035527661,-0.51623933071047,-0.514349042664736,-0.512709472498046,-0.511152786279303,-0.509511150169714,-0.507574776580721,-0.505175831866391,-0.502146482481325,-0.498360848828215,-0.493818912950197,-0.488520656999103,-0.482675832462258,-0.476410283251431,-0.46993376108479,-0.463497971644749,-0.457270713046158,-0.451419783528585,-0.445987119924479,-0.441014659196243,-0.436460430749192,-0.432156602589311,-0.427977296705101,-0.423838589070131,-0.419656555800747,-0.415473134693045,-0.411498079070194,-0.407941142405628,-0.405054032170333,-0.403088455990463,-0.402296121649762,-0.402802875557506,-0.404524795061241,-0.407461865362881,-0.411488210296939,-0.416436000022486,-0.422137404870256,-0.42871827225865,-0.436304449782244,-0.444644200610628,-0.453569695783614,-0.462913106523768,-0.47246465039373,-0.481511099005311,-0.489423131849062,-0.495949013210067,-0.500753099876962,-0.503583656523223,-0.504314809553955,-0.503030454797485,-0.499982303662459,-0.49554792929491,-0.490314674269756,-0.484660112144432,-0.478835955150326,-0.473177823418639,-0.467685706533927,-0.462191778915076,-0.455479369075762,-0.445702498074279,-0.430134156446227,-0.404746765757881,-0.364296086297366,-0.302153401696876,-0.212654934244037,-0.0904305833662195,0.0654845975757536,0.249762478269364,0.449313466880398,0.642615248534545,0.803446677505084,0.902398115625182,0.916940355043399,0.837382064186929,0.670268049190881,0.437833853914561,0.172929344717284,-0.0863933355243264,-0.307997536294472,-0.471913222317193,-0.574154773435814,-0.623322723183397,-0.635275620491449,-0.62897659905354,-0.618773869879219,-0.614065090536134,-0.616905995995945,-0.624569583168914,-0.633615633851945,-0.640352207022117,-0.643562638750421,-0.642911296099048,-0.639195300190698,-0.633883033915913,-0.627687711209521,-0.62094496165428,-0.613696738170741,-0.605733270862258,-0.59709651315296,-0.58812209563268,-0.579313464522554,-0.571090158606128,-0.563703901539695,-0.557280555697057,-0.551694260634961,-0.546735248472235,-0.542067890044783,-0.537524371819096,-0.533020788202343,-0.528557141542069,-0.524343203660299,-0.520420931249772,-0.516874235097613,-0.513619210860757,-0.510488046755081,-0.507103162020388,-0.502835253074996,-0.497306739652938,-0.49018199557919,-0.481335164148235,-0.470892111968124,-0.459398244338965,-0.447566782183168,-0.435943131286016,-0.424988789984389,-0.414955487631354,-0.40588518459517,-0.397568118413443,-0.389752573016149,-0.382102924879708,-0.374241596870656,-0.365874919778921,-0.356667270782139,-0.346366934978852,-0.334764151542396,-0.321816975254016,-0.307693230346322,-0.292602695122596,-0.276839055800171,-0.260695998819307,-0.244383303152039,-0.22811074799026,-0.211920297364858,-0.195770007833731,-0.179492074635312,-0.162666970152416,-0.145001028513895,-0.126326445592875,-0.106643232849787,-0.0861192173305389,-0.0652998108887596,-0.045149964028727,-0.026508765920793,-0.00992162902015386,0.00431775709031395,0.0160835180124281,0.0255434560692031,0.0330331887724646,0.0387205180663962,0.0426054303296706,0.0444361886879698,0.0436673791713542,0.0391662338027397,0.0299258459620726,0.0151910319230556,-0.00570948452383501,-0.0330274413104737,-0.0663013611750044,-0.103978967056094,-0.14459188974549,-0.186797621730416,-0.22933756334632,-0.271582422757063,-0.313154631349056,-0.353886389883941,-0.393442083892686,-0.431402191362676,-0.466927651976592,-0.498634005575367,-0.525640238276072,-0.547694644003747,-0.564881147575031,-0.577409535471404,-0.586202809663987,-0.592435695317841,-0.596989240806606,-0.600492771554606,-0.603365843878931,-0.605986060365971,-0.608395392954923,-0.61055190600393,-0.612455617821763,-0.614022639130568,-0.615252988442331,-0.616146684366436,-0.61670374560683,-0.617050052493659,-0.617269531601138,-0.61744610958953,-0.617663713202287,-0.61792236157355,-0.618222073914918,-0.618437007978119,-0.618441321586588,-0.618151126477407,-0.61744058060878,-0.616309703536421,-0.614800468721029,-0.612996803525389,-0.610982635366665,-0.608883845558324,-0.606826315462421,-0.604977880331528,-0.603422467771378,-0.602202051582802,-0.601400559448473,-0.601018011395566,-0.601012473637693,-0.601132243192751,-0.601209524793782,-0.601118477041285,-0.600691304710719,-0.599844120284098,-0.598534990102328,-0.59697370358646,-0.595328096321119,-0.593807957741315,-0.592623077284807,-0.591941290544479,-0.591930433110353,-0.592548571342713,-0.59366986390378,-0.595126515599766,-0.596666823533307,-0.598039084790353,-0.598949642592624,-0.599272655518992,-0.598924235968321,-0.597904404001599,-0.596297087339266,-0.594270121358556,-0.592117202935677,-0.589964213529445,-0.588104849937237,-0.586623039689018,-0.585602710268868,-0.585001927577962,-0.584610942087218,-0.584345865748509,-0.58382913354397,-0.582809041931711,-0.581117794998533,-0.578755412147132,-0.575889728093674,-0.572730531330935,-0.569739333350026,-0.567335691724295,-0.565813302417356,-0.565172184401496,-0.565328448879485,-0.565988437747851,-0.566858492818734,-0.567728863507306,-0.568431752984754,-0.568925225865753,-0.569125392827036,-0.569158133674194,-0.569023466581019,-0.568721409621895,-0.568251980769751,-0.567657151738864,-0.567020847982861,-0.566301133313479,-0.56553997912272,-0.56473740284648,-0.563893421807483,-0.563050007058244,-0.562249129534413,-0.561616667742617,-0.561194592379403,-0.561024874019133,-0.56119143695708,-0.561694297673284,-0.562533472520528,-0.563667023877884,-0.565053013993931,-0.566691458829998,-0.568456512679343,-0.570306237389729,-0.572156740827486,-0.573882176876049,-0.575440606968988,-0.576706184709337,-0.57772087893714,-0.578442750659195,-0.578913768427028,-0.57917590064597,-0.579271115573916,-0.579241381320103,-0.579086711999102,-0.578849075419306,-0.578528485392155,-0.578208863265504,-0.57789022254328,-0.577656484263717,-0.577465707774257,-0.577359859954673,-0.577380907526481,-0.577528863207209,-0.577803739554328,-0.57816359511958,-0.578650395982612,-0.579180246526082,-0.579711204814173,-0.58020132874704,-0.580692583749741,-0.581184981237108,-0.581720486302735,-0.582424971563188,-0.583298447933312,-0.584382880004961,-0.585636324512007,-0.5870587918643,-0.5884824769231,-0.589655666690278,-0.590410555687177,-0.590495430574957,-0.589742485533512,-0.588067822261143,-0.585555357663904,-0.582372916165685,-0.578730275863153,-0.574879168525536,-0.571071325749614,-0.567432617425099,-0.564088913268961,-0.561040221290859,-0.558244595482702,-0.555702043508233,-0.55328671132372,-0.550956652402053,-0.548669920043127,-0.54646847506353,-0.544352324262158,-0.542237566575493,-0.540124208457005,-0.5378863946532,-0.535314362048616,-0.53224030120047,-0.528580310183705,-0.524166579211944,-0.518621529103309,-0.511861257418532,-0.503969676926818,-0.495156561761349,-0.485547778195549,-0.475562869246829,-0.466082870056272,-0.457611230992654,-0.450441633032163,-0.444532126224405,-0.439924668141074,-0.436493400807538,-0.433818789168901,-0.431733021073192,-0.430110238047828,-0.429076304524287,-0.428799038614603,-0.429404304422344,-0.431101873577693,-0.433891748324367,-0.43785783843401,-0.442874284293142,-0.448731318438311,-0.455470896315366,-0.463051065521624,-0.471429873496257,-0.480397552141771,-0.489870194738515,-0.499638032876551,-0.50911371338754,-0.51775183679375,-0.525342634222624,-0.531802198183517,-0.537088574878919,-0.541285671894952,-0.544645212047073,-0.54737696415686,-0.54943897382882,-0.550789286520216,-0.551302039852347,-0.550851371301121,-0.54926946435318,-0.546430456196485,-0.542166530031644,-0.535932284314318,-0.526846686601026,-0.513986750463863,-0.495758227819204,-0.469937562773525,-0.433294307021035,-0.381758935223972,-0.310296983479165,-0.21156652628484,-0.0804072379373467,0.084187776761287,0.275380044158185,0.479786290937981,0.673031336570888,0.822475093224909,0.898204473107492,0.878823019049552,0.761771550330011,0.556867270572508,0.294191090570394,0.0138508901496857,-0.245597743002215,-0.453444590060534,-0.597984523786212,-0.678378462632006,-0.707590139880946,-0.703449934700872,-0.683578456922361,-0.661988285609442,-0.645266169182113,-0.635803471468541,-0.632341571688814,-0.632740818214127,-0.634903513153903,-0.637571035408465,-0.64007211760121,-0.642029169165967,-0.643484137882548,-0.64456287911928,-0.645223432765181,-0.645297977075863,-0.644492828674622,-0.642640165622432,-0.639656073574214,-0.635582499624725,-0.630503344620001,-0.624586417003247,-0.617999525126267,-0.610910477250527,-0.603445127703405,-0.595603469189604,-0.587469402016308,-0.579084872559772,-0.570659642490472,-0.562361519550042,-0.554358311397141,-0.546901733298117,-0.540075685059125,-0.533964066406425,-0.528441007763308,-0.523338685630384,-0.518447322586593,-0.513473233445389,-0.508290548324654,-0.502815351113231,-0.497047633316735,-0.49098738636889,-0.484718509322142,-0.478282947314177,-0.471470922344776,-0.463988748656058,-0.455668601957524,-0.446510473271821,-0.436598261246043,-0.426141725997478,-0.415644304493812,-0.405567479795493,-0.396037104142903,-0.3869273066469,-0.377734631755262,-0.367619993098392,-0.355324765800567,-0.339967909532384,-0.32125573773573,-0.298852609952347,-0.273136101031446,-0.245322862665013,-0.217258854164551,-0.190286588651789,-0.165119271525054,-0.142889646580577,-0.123933334513543,-0.107746879074079,-0.093281423981788,-0.0797398359781169,-0.0665347509823227,-0.0527851279544171,-0.0379455565682328,-0.021974072591468,-0.00537411173126545,0.0114767518821476,0.0281589903154347,0.0440433064521315,0.0579550032333572,0.0685935221052815,0.075077843001059,0.0761493612885414,0.0706753339074054,0.0575649716788085,0.0366924238907234,0.00889677829724594,-0.0250667850025788,-0.0636459628242268,-0.105372359639579,-0.148441949129399,-0.191386335701105,-0.23349229293763,-0.274214409770601,-0.313175090480989,-0.350080647010114,-0.384637391270655,-0.416551635147275,-0.445403828962809,-0.470312930720327,-0.491320882982809,-0.508595489822197,-0.522598232199289,-0.533874498740259,-0.543011631892451,-0.550848697149085,-0.557637406153476,-0.563461655147831,-0.568321432663495,-0.572300634900828,-0.575441204195343,-0.577952898242406,-0.58004547471855,-0.581886737437249,-0.583686444039156,-0.58552849061341,-0.587496773232693,-0.589465418729718,-0.591350507766743,-0.593110074836157,-0.594660200571433,-0.595958919437359,-0.596964265885812,-0.597760135890804,-0.598346517724982,-0.598765353494677,-0.599058585295685,-0.599310109058677,-0.59956186686016,-0.599771893078263,-0.59998212977261,-0.600234518995286,-0.60052904894663,-0.600781800131017,-0.600992760736753,-0.601245826636685,-0.601540986009543,-0.601836273185382,-0.60217363018066,-0.602594999009228,-0.603058413993325,-0.603479955609029,-0.603817658176534,-0.60394564832634,-0.603738052689532,-0.603194859432896,-0.602399964414755,-0.601437263495986,-0.600390652540692,-0.599469888951329,-0.598842776290102,-0.598551256590008,-0.598595318045164,-0.598932995011494,-0.599522321852252,-0.600195471404259,-0.600742662668258,-0.600996068499265,-0.600787861762468,-0.600034123023596,-0.598650932860013,-0.596806094930371,-0.594709366751261,-0.592570505853146,-0.590641223625935,-0.589089323785293,-0.588124563907871,-0.587704978518343,-0.587746648314295,-0.588123700167012,-0.58862635327746,-0.589086780711546,-0.589253247866474,-0.588957927850845,-0.588074947640658,-0.586562341924965,-0.584462053106712,-0.581857977458763,-0.578834011279938,-0.575516004740693,-0.572113715728803,-0.568752994470963,-0.565475783533668,-0.562324025513742,-0.559423570728869,-0.556816361839222,-0.554460433848369,-0.552355775638647,-0.550586283816906,-0.549151947336162,-0.547968847496529,-0.546995019480621,-0.546146544664866,-0.545381458310096,-0.544573888028052,-0.543681869161633,-0.542705390941045,-0.541686396484789,-0.540666828955823,-0.539688631562555,-0.538877655249483,-0.538275843318919,-0.538009046811277,-0.538077255281991,-0.538564366026635,-0.539428414857848,-0.540501576106366,-0.541657978001337,-0.542645887292085,-0.543297478473249,-0.543444926096198,-0.54304626630454,-0.542185396835187,-0.54098816932977,-0.539664343180532,-0.538465631686578,-0.537559840520485,-0.537072821574207,-0.537088472960146,-0.537606785167424,-0.538585794907784,-0.539899631271862,-0.541464377264735,-0.543154162117373,-0.544885068977381,-0.546573181065268,-0.548092627830731,-0.549443400333032,-0.550667443552461,-0.551848656391435,-0.552987030141145,-0.554166463861938,-0.555470856694776,-0.556858246327886,-0.558202762842679,-0.559420490249312,-0.560427512642972,-0.561097960360152,-0.561389871514213,-0.561303238151657,-0.56088000625323,-0.560120168045368,-0.559107623535754,-0.557968226669579,-0.556743923796175,-0.555518615204556,-0.55433424743485,-0.553274720969023,-0.552381982542301,-0.551614071299425,-0.550970980330166,-0.550410748980743,-0.549975324389337,-0.549622746107854,-0.549353007637425,-0.549166102584624,-0.549103978507307,-0.549082721536364,-0.548976464066365,-0.548701292446206,-0.548089385445654,-0.547056829635608,-0.545519711699449,-0.543603887658108,-0.541393259802114,-0.538971730537367,-0.536423202386091,-0.533789624142943,-0.531029037031122,-0.527973620858466,-0.524497509397634,-0.520432882697363,-0.515653874772984,-0.510034619762478,-0.503491205772151,-0.496065582567121,-0.487883607727331,-0.479155046648371,-0.470131618697461,-0.461065043369432,-0.45224899413232,-0.443851283048855,-0.435913860777212,-0.428478678106206,-0.421503778266374,-0.41498915846514,-0.408892862197864,-0.403298794627794,-0.398374768741907,-0.39424664381709,-0.39116614080004,-0.389301073083777,-0.388777300353052,-0.389594820895277,-0.391669725445903,-0.394918104878591,-0.399088234826452,-0.403970344906645,-0.409354664876032,-0.414989470786823,-0.420706946521472,-0.426339276103457,-0.431844505232143,-0.4371806797487,-0.442389753326103,-0.447639541314288,-0.452971997671554,-0.458429076499315,-0.463926870507922,-0.469381472551366,-0.474583114093056,-0.479238119050846,-0.483178673021319,-0.486153054055852,-0.488035401884854,-0.488699856383428,-0.488188372950742,-0.486542907130825,-0.48376346076779,-0.479891989695503,-0.474928496047942,-0.468831028259175,-0.460928327235835,-0.449710057132956,-0.432826805353873,-0.407383759463839,-0.369185537983128,-0.312526421162767,-0.231490920173748,-0.120666992468736,0.0224625890634588,0.195758174615733,0.390115775997911,0.58887971280959,0.766793766320002,0.894532194708894,0.9461675174448,0.906008991991051,0.774182475167225,0.56419710015008,0.306133768680345,0.0364923206169156,-0.209360158130111,-0.405789873786863,-0.543566986041399,-0.623824254389066,-0.658602438114497,-0.663088834999325,-0.653016142942656,-0.639753860116464,-0.628000823499752,-0.619477147221894,-0.6137213456134,-0.609852394687502,-0.606653639828937,-0.603747503448014,-0.601175946531507,-0.598980930193531,-0.597204415674586,-0.595804456650932,-0.594739106923227,-0.593798605036214,-0.592773189656947,-0.591453099573713,-0.589586619850104,-0.587089851047995,-0.58387889384711,-0.580037664423129,-0.575692032912028,-0.570925915719226,-0.565949090897611,-0.560845475077364,-0.555657031154303,-0.550425722133393,-0.545067649592955,-0.539498915217765,-0.533593666952861,-0.52722605284696,-0.520396082585495,-0.513103765954717,-0.505474974374691,-0.497803394742629,-0.490256852517652,-0.48308708094336,-0.476419951822196,-0.470297429358696,-0.464761477847548,-0.459644292447892,-0.454861976095434,-0.45024672412153,-0.445672685785986,-0.441055964275383,-0.436186801322103,-0.430939346426719,-0.425145795321806,-0.418680297659838,-0.411249187787327,-0.402558800122324,-0.392441330687088,-0.380854837106274,-0.367841284760292,-0.353526546783471,-0.338372127131119,-0.322797575974287,-0.307222443542702,-0.291814557053962,-0.276615882246088,-0.261458615685963,-0.245923230922584,-0.229590201554037,-0.21153655508771,-0.19062954985206,-0.166785290339232,-0.14046528106523,-0.112382749654193,-0.0834187391467472,-0.0553772772047448,-0.0309014684196049,-0.0107884482418323,0.00487786321089184,0.0161813611731012,0.0233318023887753,0.0270004358719529,0.0284458644432549,0.0279617524736288,0.0252963643346183,0.0196106105556213,0.0101493093430842,-0.00405249033114984,-0.0242953702622102,-0.0515442814929971,-0.0861348673983506,-0.127144156010663,-0.173313544603817,-0.222545353553249,-0.272196503247593,-0.320001498672617,-0.364072429409122,-0.403066785010134,-0.436439178067725,-0.46465111343502,-0.488457772862185,-0.508488476546142,-0.525498406197413,-0.540746189641414,-0.555364593144102,-0.56952144451351,-0.583300663838907,-0.596786171178379,-0.60989407117751,-0.621953114619147,-0.631830559955829,-0.639568373255727,-0.645376335924966,-0.649464229326338,-0.652125742466954,-0.653780425841077,-0.65509955296261,-0.656125089621923,-0.656815093866564,-0.657169577533776,-0.657104644714114,-0.656662260973639,-0.655800484127917,-0.65456127961942,-0.652986612826014,-0.651118449059111,-0.649040707406652,-0.646795353041644,-0.644592166444455,-0.642557020332109,-0.640815787346158,-0.639410432361286,-0.638340966328399,-0.637607400117728,-0.637041929137854,-0.63651870255813,-0.635953823307025,-0.635263394225669,-0.634489379600691,-0.633673743628175,-0.632816496567258,-0.632001556273046,-0.631186978970983,-0.630456682324262,-0.629768722363426,-0.62912310886419,-0.628645713035636,-0.628336544449892,-0.628321474109656,-0.6285585575331,-0.629047803976627,-0.629705314899104,-0.63040523780539,-0.631063673934718,-0.631512816724998,-0.631710721035711,-0.631531533922627,-0.630933310015929,-0.629874103829451,-0.628311969759571,-0.626330823618606,-0.623972627254487,-0.62144715777384,-0.618922238316906,-0.6165656919014,-0.61454534142158,-0.612903148112897,-0.611681073085571,-0.610837169634124,-0.610287537081378,-0.60990632077768,-0.609567665944969,-0.609229625365693,-0.608766344002841,-0.60809392053374,-0.607128453504609,-0.605869949019595,-0.60436036689539,-0.602599712971051,-0.600755808331591,-0.59895452008341,-0.597363669043487,-0.59610912204933,-0.595232838113772,-0.594692868424624,-0.594363356344354,-0.59407649125462,-0.593664462400835,-0.593001412736759,-0.592003438924306,-0.590670545178204,-0.589086643265864,-0.587335644817642,-0.585585369016407,-0.583961681063053,-0.582590446021306,-0.581597528817758,-0.580982932707458,-0.580746660808465,-0.580762854567507,-0.580863701449769,-0.580881388783896,-0.580690057607024,-0.580205802665024,-0.57942862625759,-0.578442438238547,-0.577373102171365,-0.576388435329521,-0.575614301007254,-0.57513460851999,-0.575033267049612,-0.575310277955307,-0.575797827084436,-0.576244192462714,-0.57639765198442,-0.576132344947455,-0.575448272053964,-0.574471295410998,-0.573620953910466,-0.5732748324713,-0.573810515885002,-0.57547972728196,-0.578240512752956,-0.581841149039624,-0.585904051224941,-0.590135541958187,-0.594158036076572,-0.597551994450974,-0.599981785521347,-0.601279592987334,-0.601361508119626,-0.60022752976098,-0.598045472016909,-0.595109010411933,-0.591753774201025,-0.588315392525916,-0.58500363288177,-0.581944354963169,-0.579221464510106,-0.576834959464382,-0.574784837660458,-0.572987189137072,-0.571442011517777,-0.57014930232259,-0.56902515127966,-0.568027601861051,-0.567156651284083,-0.566454250512699,-0.565878442724381,-0.565387271001191,-0.565022686020822,-0.564826638368391,-0.564757170848246,-0.56473037233025,-0.564704285440897,-0.564636952719987,-0.564360555087676,-0.56374922722527,-0.562802965266407,-0.561689580643419,-0.560618838554435,-0.559758550275317,-0.559444342385339,-0.559927933699866,-0.560915642978947,-0.561610342773748,-0.561256859410835,-0.559183926838625,-0.554594417404937,-0.546733157237917,-0.535684049299274,-0.522286165696303,-0.507210763097537,-0.491129098113695,-0.474838288833836,-0.459303268671864,-0.445111386385574,-0.432388498388711,-0.421302414890507,-0.411978992207755,-0.404334317387236,-0.397990800517795,-0.392612805490612,-0.387948603845735,-0.383830374773799,-0.380090297428105,-0.37672836630561,-0.373912391248649,-0.371810182067366,-0.370631502386253,-0.370544161956218,-0.371715970501114,-0.374272783874625,-0.37829850406197,-0.383667263802319,-0.39012733428013,-0.39746894050611,-0.405482307474085,-0.413915706317851,-0.422475454312849,-0.430951776412284,-0.439176851403967,-0.446815042687858,-0.453446805967353,-0.45873650463019,-0.462348502060432,-0.464240838553818,-0.464497415940088,-0.463369951429394,-0.461194069924243,-0.458263442486608,-0.454913694029127,-0.451270680247731,-0.447334395312818,-0.443062879560412,-0.43845612718331,-0.433472178542938,-0.428027120170828,-0.421869223235628,-0.414411128165273,-0.404226398510583,-0.38892365941223,-0.365188551446956,-0.328280284491125,-0.272283360791018,-0.190485159567554,-0.0769701831207738,0.0704431740314754,0.247685394463067,0.444058253234937,0.640262987187303,0.808274433403956,0.917382382865054,0.942708210944277,0.872337031026965,0.709918832887756,0.473997221172335,0.198680676913414,-0.0768878575200731,-0.317173470456881,-0.498514188353963,-0.615078421761889,-0.670767873275692,-0.679888799052984,-0.660103762885247,-0.629159236302864,-0.599767229508069,-0.576416799169571,-0.561247586698176,-0.553714187489094,-0.551928673957006,-0.553205995519538,-0.55574213239083,-0.558739957116777,-0.561612111524194,-0.564064914411187,-0.566224223082311,-0.568341756435508,-0.570585325738661,-0.572829065406131,-0.574989063757912,-0.576897501485755,-0.578344605498547,-0.579120602767658,-0.579057674172271,-0.578113862189508,-0.576247209360422,-0.5735416198249,-0.570080997787609,-0.565907293673565,-0.561104411818132,-0.555714302777721,-0.549736963330105,-0.542668944181687,-0.534258519174521,-0.52442177759691,-0.51328457802844,-0.501014732960895,-0.487947870332878,-0.475300648891892,-0.463828235160227,-0.454076026503974,-0.446044020374538,-0.439690260446521,-0.43480497508328,-0.430758854268016,-0.427090403431214,-0.423463989605782,-0.419879610651071,-0.416295310649406,-0.412711087595608,-0.409084985707207,-0.405417003113924,-0.4013715072541,-0.396109419495213,-0.388791661271477,-0.378872830997324,-0.366143157911945,-0.350518732854895,-0.332377139024324,-0.313060898114475,-0.293996439574102,-0.276022839088979,-0.259349864736667,-0.243809700055007,-0.229192574800231,-0.214785272653474,-0.199622854289202,-0.182362795840252,-0.162459696552243,-0.140291140317491,-0.116192757243593,-0.09054213134248,-0.0642622466676454,-0.0396186103650976,-0.0181215604317401,-2.28195768799399e-05,0.01467761250278,0.0260636437445547,0.0344709050997653,0.0406545659137429,0.0448243954957222,0.0462671785162233,0.0435564842319234,0.035349789538017,0.0204304328138389,-0.00220847838667781,-0.0330284365756137,-0.0715679497268402,-0.115939095137325,-0.164253950150127,-0.214498730619045,-0.26428206783881,-0.311338454682004,-0.354535137873813,-0.394501425663383,-0.43140513404744,-0.4650784483038,-0.495731138352334,-0.523908604909176,-0.549401079520429,-0.570572363044065,-0.587170733251833,-0.599909406380054,-0.609459644852938,-0.616282941902283,-0.620966652324999,-0.624769392464731,-0.628110701797308,-0.630948627533078,-0.633199263064044,-0.634904563342088,-0.63623234487791,-0.637140654981407,-0.637671448674336,-0.637950588689247,-0.638145891623587,-0.638341266404163,-0.638536714286066,-0.638858098075686,-0.639347372905536,-0.639878678543526,-0.640368108615986,-0.640689802916939,-0.640801808941483,-0.640578266505429,-0.640019176968322,-0.639208449387545,-0.638229992827606,-0.637209670203882,-0.636189436747096,-0.635253201536707,-0.634317058275752,-0.633339054513884,-0.632193330111864,-0.630754024930148,-0.628979186517485,-0.626826862420242,-0.624422915560646,-0.621809301166848,-0.61906992830636,-0.616330659885043,-0.613717358801287,-0.61139784178983,-0.609372110196679,-0.607766026891861,-0.606621547044356,-0.60593867196596,-0.605633495265507,-0.605538202847929,-0.605610842137422,-0.605641645162787,-0.605630613159894,-0.605493839657044,-0.605189372008541,-0.60475916523863,-0.604161266661358,-0.603479585103813,-0.602630213991548,-0.601655108261491,-0.600596222826666,-0.599411604885755,-0.598143209301583,-0.59674908322107,-0.595229227608919,-0.593541689557239,-0.591602562284802,-0.58941184667079,-0.586927589719626,-0.584191746094749,-0.581288224273115,-0.578300932699724,-0.575397687476609,-0.572704350827757,-0.570346784943312,-0.56840889813416,-0.566890690986533,-0.565792164051083,-0.565029410152696,-0.564476568234782,-0.564007777203583,-0.563539129772495,-0.562986718616771,-0.562266636373055,-0.561378883328583,-0.560365413575933,-0.559268181167794,-0.558087186271759,-0.556906336704408,-0.555809540241309,-0.554796796927046,-0.553868106764535,-0.552981515869901,-0.552053116472194,-0.550957046913126,-0.549609399336456,-0.547968219687766,-0.546033507714245,-0.543889170809316,-0.541661070167643,-0.539517020784975,-0.537540929923542,-0.535858658646403,-0.534512160282879,-0.533459480428469,-0.532658664634429,-0.53198385071808,-0.531351130297242,-0.530634641100579,-0.529792428502073,-0.52882449167622,-0.527772783598083,-0.526721211043347,-0.5257956345884,-0.525163868610433,-0.524909819753092,-0.525159348461072,-0.525954407445809,-0.527294995530466,-0.529097203805299,-0.531151261783039,-0.533331306623213,-0.535427567753097,-0.537314182247253,-0.538907240982975,-0.540206742485402,-0.541296592927814,-0.542218744597499,-0.543099057430546,-0.543979483632921,-0.54498588306011,-0.546118253993408,-0.547460502364414,-0.548970672531354,-0.550606808813962,-0.552326955493931,-0.553921341436092,-0.555306057002627,-0.556313284829464,-0.556943022895688,-0.557153315299971,-0.556944159950738,-0.556441416256352,-0.555728989746392,-0.554848832072227,-0.553842894852422,-0.552711175828508,-0.55149562655524,-0.550238198556393,-0.548938889480578,-0.547639650791526,-0.546382433923927,-0.545209190284095,-0.544119917405833,-0.543030705106294,-0.541941550865969,-0.54085245213975,-0.539679498668017,-0.538464641701459,-0.53720787862254,-0.535993114480703,-0.534820346613846,-0.53368957233873,-0.532642742796569,-0.531595947574531,-0.530507230085806,-0.529250726035943,-0.527784478802929,-0.526066531748359,-0.524096882063071,-0.521875526923144,-0.519444417335549,-0.516845504294159,-0.514120738780585,-0.511312071765016,-0.50837754651743,-0.505317160142898,-0.502005048203162,-0.49831534625195,-0.493996328301375,-0.48879626835726,-0.482547348109638,-0.47520761077844,-0.466902914959186,-0.457884980779032,-0.448531389897641,-0.4392197239736,-0.430243656975648,-0.421645139804276,-0.413382215671871,-0.405370973948413,-0.397611411696801,-0.39031329520818,-0.383896160002811,-0.378989310830936,-0.376222052449543,-0.37605587424395,-0.378658588694204,-0.383778469841478,-0.39082816097856,-0.399136397719618,-0.407989961845864,-0.416927358220129,-0.425654907098057,-0.434046744128933,-0.442144820356509,-0.449949132995723,-0.457501633123147,-0.46463450260888,-0.471263831031076,-0.477389615676743,-0.483011853852882,-0.488172496732085,-0.492955449353307,-0.49757047831226,-0.502059534848431,-0.506422616380283,-0.510659720350811,-0.514728890383442,-0.518504262437938,-0.521776064811095,-0.524418433516718,-0.526221596907031,-0.526975783362984,-0.526513175139743,-0.524707908367335,-0.521434119206475,-0.51656594384919,-0.509641887760883,-0.499277471853461,-0.483249140175572,-0.458326444533902,-0.419684690666266,-0.360737122862894,-0.27397400086335,-0.153647645925517,0.00250745153628917,0.189330970537787,0.395159744110273,0.598051913266389,0.767716803861368,0.873486157108301,0.891278467817754,0.812912737947293,0.644430322808303,0.409115607892616,0.143384532079826,-0.114584904309151,-0.333243408476329,-0.495096225680016,-0.598255431493451,-0.651489378116382,-0.670614663720859,-0.671405932676984,-0.666407383346872,-0.663086798912806,-0.662493024343225,-0.663703073943779,-0.664829023633171,-0.664696164736097,-0.662801050138563,-0.659185632753547,-0.654185542452193,-0.648220316839793,-0.641877308945506,-0.635450194929388,-0.629106789461717,-0.622972953412643,-0.617090640007376,-0.61154375636063,-0.606248394252491,-0.601288460886928,-0.596705909667625,-0.592542694042722,-0.588714905970252,-0.585096683607664,-0.581562165156507,-0.577985488862282,-0.574240793014265,-0.570160262100509,-0.565701942186916,-0.560698017848098,-0.555022627546421,-0.54854990978693,-0.541237910806716,-0.533170538419451,-0.524431700480622,-0.515231166421671,-0.505862613404834,-0.496661672477974,-0.487838113194925,-0.47951779745993,-0.471700725682417,-0.464344944466217,-0.457324592764313,-0.450471855723206,-0.443702826216907,-0.436933597156817,-0.430164169180867,-0.423352589118545,-0.416331042300732,-0.408721944869517,-0.400189666846553,-0.39039857828767,-0.379055003127101,-0.365907219176886,-0.350955227350343,-0.334618567040727,-0.317316777672381,-0.299469398700081,-0.281412061918725,-0.263438445307466,-0.245632457649737,-0.227700423153259,-0.209306712207876,-0.190073741384816,-0.16974978881522,-0.148167040344563,-0.12540940491116,-0.101980329924658,-0.0784252166618648,-0.0555411894900394,-0.0341253727971603,-0.0149748909910948,0.0014487622597944,0.0150197240274977,0.0257379929011186,0.0339391982118387,0.0399589692752372,0.0439231661680794,0.0456220181947505,0.0445940315777974,0.0400001279243789,0.0312949057442963,0.0179749173820003,-0.000211561758380052,-0.0231806255224608,-0.0506805523839361,-0.0819561746850728,-0.11700749398034,-0.155289111846044,-0.195710229879362,-0.237347865059304,-0.279362942056098,-0.321335923988774,-0.362008197079587,-0.400456778307991,-0.436471900013018,-0.469801840685542,-0.499817294208731,-0.525343554477777,-0.546170853812401,-0.56263482450767,-0.575071098850341,-0.583899216807511,-0.589916302939356,-0.594339020242957,-0.597922539410097,-0.601002492671094,-0.603662789173082,-0.60598733804795,-0.607976140721711,-0.609461383223891,-0.61031720541064,-0.610543608653407,-0.610266455837963,-0.609569655984164,-0.60849516424499,-0.607210797284867,-0.605884371744265,-0.604599796549115,-0.603399026754693,-0.602365971234331,-0.601584538833677,-0.601138638369784,-0.601028270940563,-0.601295391458347,-0.601981954804185,-0.603004054292503,-0.604361690894334,-0.60597095785718,-0.607747948393806,-0.609524847991761,-0.611133842102187,-0.61249102382865,-0.613470532391872,-0.61398846081858,-0.614002855940728,-0.613597626084367,-0.612814725689615,-0.611738062999558,-0.610493500059516,-0.609164945026702,-0.607920213703973,-0.606759306470233,-0.605766131348683,-0.604982642471706,-0.604366886235409,-0.603876908988642,-0.603344895497934,-0.602728892015814,-0.601903037056147,-0.600825376772851,-0.59949591111454,-0.598040501513639,-0.596668917041063,-0.595465065181629,-0.594638714902506,-0.594273773583848,-0.594412194707999,-0.595012024014265,-0.595947399498513,-0.597176366792078,-0.598531109937311,-0.599843812921697,-0.600988613522361,-0.601839649460952,-0.602313012248183,-0.602366747183579,-0.602042807200056,-0.601383145174069,-0.600513621615055,-0.599560096975622,-0.598648431651394,-0.59782057829124,-0.597034581797165,-0.596332394703494,-0.595588154107894,-0.594717950895417,-0.593637875893663,-0.592347927562408,-0.590932011993628,-0.589390127532261,-0.587890087845181,-0.586515798852369,-0.585351166416659,-0.584438142499041,-0.583734771313997,-0.583241050864128,-0.58283111756107,-0.582421061604992,-0.581885019295188,-0.581097126875164,-0.580015428222556,-0.578639921004616,-0.577012556678534,-0.575133332802154,-0.573170062258439,-0.571290557876583,-0.569578724742789,-0.568076514045524,-0.566825876920794,-0.565910718297446,-0.565205173828748,-0.564583379117011,-0.563919469714133,-0.563087581122164,-0.56200380263871,-0.560626177357539,-0.559038609858853,-0.557283050830653,-0.555527312448693,-0.553981160687522,-0.552770453786744,-0.551979096096564,-0.55160708423372,-0.551696368616709,-0.552163038087306,-0.552797319911364,-0.553515302848569,-0.554191121774002,-0.554740865368651,-0.555164529965113,-0.555462111858857,-0.55575946884361,-0.556056597143375,-0.556437400637489,-0.557027737016778,-0.557785648560452,-0.558795039050853,-0.560055904550382,-0.561568241092182,-0.563290090836376,-0.565053634381506,-0.56685886767936,-0.568537971277518,-0.570007033389396,-0.57122409605056,-0.572189155119875,-0.572986114125492,-0.573573015041929,-0.574075715204996,-0.574536164244088,-0.574996311773038,-0.575414199701714,-0.575789823771714,-0.576165133557624,-0.57645621708901,-0.576621116230965,-0.576617872840585,-0.576446482613086,-0.576064987393468,-0.575389475177843,-0.574419941649212,-0.573240290178808,-0.57189247029298,-0.570376477674546,-0.568734261853796,-0.567049726209857,-0.565322866437614,-0.563469770549086,-0.561448480409281,-0.559300945582402,-0.556985207953976,-0.554501263266708,-0.551849107277081,-0.549028735756759,-0.546040144494012,-0.542799421605491,-0.539264609072113,-0.53535179505085,-0.531102929255426,-0.526518007578477,-0.521638979782616,-0.516633657191504,-0.511627897312002,-0.506621696145965,-0.501447234346851,-0.495936692600432,-0.489838343936578,-0.482774599885868,-0.474619595084388,-0.465541141119973,-0.455790957309525,-0.445746624545248,-0.435869631451239,-0.426663420540077,-0.41829580361084,-0.410766777129789,-0.404202199145484,-0.39860206622126,-0.394008328815873,-0.390462937440057,-0.38817565803716,-0.387356256605221,-0.388046683819038,-0.390330844255604,-0.394124827171331,-0.399302768037834,-0.405570987008775,-0.412509942765982,-0.419742047900014,-0.426931668911433,-0.433827080056891,-0.440260463350376,-0.446315723943734,-0.452244582438252,-0.458256805661775,-0.464478252825081,-0.470992829367888,-0.477758579270386,-0.484481823519928,-0.490784975491455,-0.49629044863825,-0.500662610337874,-0.503649735738072,-0.505125961602669,-0.505133240157445,-0.503797431401539,-0.50128634926365,-0.497725853913401,-0.493157897917509,-0.487246849327008,-0.478734091695552,-0.465186301011416,-0.443708661060343,-0.410735094202333,-0.361650676769133,-0.290959454444365,-0.19308156531592,-0.0643250705832833,0.0959393377867359,0.282803060214891,0.483512128043686,0.676250542036888,0.832112103085355,0.921854981222308,0.922320653880073,0.824027551801792,0.636247474263982,0.384110773783415,0.105669586979194,-0.159513611218691,-0.378588961154495,-0.532845048980257,-0.622072106517486,-0.656213196138505,-0.654567087715288,-0.636558412759539,-0.616367572286148,-0.60221752145159,-0.595492738813015,-0.595144380034582,-0.597522462508429,-0.599312634492269,-0.599591913505748,-0.598360301761933,-0.596121247719263,-0.593546015323119,-0.591305868626637,-0.590030117945955,-0.589802673722425,-0.590329861901901,-0.591234100848467,-0.592305624413314,-0.593376620400216,-0.59419536903098,-0.594552104479785,-0.594320968717853,-0.593208288444362,-0.590878436620703,-0.587037740159893,-0.581518387615959,-0.574404290718116,-0.565863268991182,-0.556230957444881,-0.545842991194206,-0.535076959303849,-0.524310450942965,-0.513753240005455,-0.503657054333593,-0.494147760338255,-0.485309270688036,-0.47714159046388,-0.469560817158513,-0.462566956055111,-0.456034151002584,-0.449836545949377,-0.443932192632435,-0.438195235197215,-0.432583725576239,-0.426971808109055,-0.4212336272311,-0.415285281317712,-0.408958961148837,-0.402128811442634,-0.394668977009772,-0.386579464286983,-0.377986141336135,-0.369014876308813,-0.359833491290162,-0.350525900763427,-0.341008203919285,-0.330860869275519,-0.319244826986305,-0.305027330375572,-0.287537125142637,-0.266690310895521,-0.242570802701592,-0.21564010031047,-0.187156826601022,-0.159176727580128,-0.132916472433469,-0.108879515058715,-0.0875273555813435,-0.0693214941981459,-0.0540941235036038,-0.041006174643714,-0.0295122557454674,-0.0191928365361772,-0.00971229449725041,-0.00065109948348041,0.00799074014056616,0.0158775851916531,0.022422073358996,0.0266173038264843,0.0270787911190166,0.0225479112418687,0.0121436247511584,-0.00476338477904786,-0.0285087569103359,-0.0586729620453346,-0.0936198091330919,-0.131671153322398,-0.171442526718709,-0.211759230692851,-0.251320705120806,-0.28932983605433,-0.325912494167458,-0.361362365548059,-0.395427736334187,-0.427521261936468,-0.457517090087929,-0.485205460859615,-0.510208798969194,-0.532107575313658,-0.550901799260573,-0.566759295577385,-0.579680073671082,-0.589915866034603,-0.597718405176122,-0.603339423617244,-0.607030653891206,-0.609085782385875,-0.609798495497116,-0.609252710402873,-0.607658205819898,-0.605182806622648,-0.601910429996631,-0.598008900815853,-0.593646043951345,-0.589157499648601,-0.584795000456829,-0.580894186606385,-0.577916559851763,-0.576155806556015,-0.575821705378558,-0.57687231189406,-0.579097866280248,-0.582204701005719,-0.585647425448832,-0.588880648964805,-0.591400934728714,-0.592746799733679,-0.592708484013152,-0.591244042949471,-0.588563254961706,-0.58508566765904,-0.581188874770072,-0.577292423830674,-0.573648046958124,-0.570381614694161,-0.567577043692874,-0.56519238902931,-0.563227659577027,-0.561724818006355,-0.560725826937874,-0.56018874125106,-0.560071615772233,-0.560332505272877,-0.560887510623149,-0.561610778790219,-0.562418410526267,-0.563394321901308,-0.564496567387836,-0.565683201393682,-0.566954232105241,-0.568267713796257,-0.569581700671088,-0.570728385328696,-0.571665821830042,-0.572352064162113,-0.572745166236429,-0.57284513573238,-0.572651980250951,-0.572165707313276,-0.571386324359214,-0.570355792590765,-0.569116073125856,-0.567751080841802,-0.56630277668431,-0.564938983045432,-0.563743614538155,-0.562758631839938,-0.562067949381078,-0.561671573809004,-0.561653419366333,-0.561929584820747,-0.562416168843088,-0.5630292700062,-0.563643032938969,-0.564173556014847,-0.564494983661124,