-0.110810811,-0.07027027,-0.02972973,0.043243243,0.124324324,0.240540541,0.389189189,0.554054054,0.689189189,0.7,0.627027027,0.321621622,-0.105405405,-0.548648649,-0.894594595,-1.010810811,-1.002702703,-0.848648649,-0.662162162,-0.513513514,-0.405405405,-0.327027027,-0.259459459,-0.227027027,-0.202702703,-0.186486486,-0.213513514,-0.259459459,-0.294594595,-0.308108108,-0.316216216,-0.321621622,-0.324324324,-0.321621622,-0.316216216,-0.310810811,-0.308108108,-0.305405405,-0.302702703,-0.297297297,-0.291891892,-0.286486486,-0.278378378,-0.267567568,-0.259459459,-0.243243243,-0.227027027,-0.205405405,-0.178378378,-0.151351351,-0.12972973,-0.105405405,-0.07027027,-0.035135135,0,0.037837838,0.072972973,0.105405405,0.140540541,0.172972973,0.194594595,0.218918919,0.232432432,0.243243243,0.251351351,0.256756757,0.259459459,0.254054054,0.248648649,0.243243243,0.237837838,0.235135135,0.22972973,0.227027027,0.221621622,0.218918919,0.213513514,0.208108108,0.2,0.191891892,0.172972973,0.135135135,0.108108108,0.091891892,0.081081081,0.07027027,0.059459459,0.054054054,0.051351351,0.045945946,0.043243243,0.040540541,0.035135135,0.02972973,0.024324324,0.021621622,0.018918919,0.013513514,0.005405405,0,-0.021621622,-0.067567568,-0.091891892,-0.105405405,-0.113513514,-0.121621622,-0.121621622,-0.116216216,-0.108108108,-0.091891892,-0.064864865,-0.040540541,-0.035135135,-0.032432432,-0.02972973,-0.02972973,-0.027027027,-0.027027027,-0.02972973,-0.032432432,-0.037837838,-0.043243243,-0.048648649,-0.054054054,-0.056756757,-0.062162162,-0.064864865,-0.067567568,-0.072972973,-0.075675676,-0.081081081,-0.083783784,-0.089189189,-0.091891892,-0.097297297,-0.1,-0.105405405,-0.110810811,-0.116216216,-0.127027027,-0.148648649,-0.159459459,-0.164864865,-0.17027027,-0.178378378,-0.164864865,-0.121621622,-0.051351351,0.054054054,0.189189189,0.354054054,0.494594595,0.554054054,0.481081081,0.237837838,-0.145945946,-0.594594595,-0.964864865,-1.110810811,-1.102702703,-0.918918919,-0.643243243,-0.408108108,-0.262162162,-0.17027027,-0.121621622,-0.094594595,-0.081081081,-0.072972973,-0.064864865,-0.059459459,-0.056756757,-0.054054054,-0.051351351,-0.048648649,-0.045945946,-0.045945946,-0.043243243,-0.040540541,-0.040540541,-0.043243243,-0.045945946,-0.051351351,-0.056756757,-0.059459459,-0.062162162,-0.067567568,-0.07027027,-0.075675676,-0.078378378,-0.075675676,-0.072972973,-0.064864865,-0.054054054,-0.043243243,-0.02972973,-0.008108108,0.005405405,0.018918919,0.037837838,0.072972973,0.102702703,0.124324324,0.145945946,0.175675676,0.216216216,0.248648649,0.275675676,0.3,0.313513514,0.324324324,0.335135135,0.340540541,0.337837838,0.332432432,0.318918919,0.302702703,0.27027027,0.218918919,0.175675676,0.124324324,0.07027027,0.018918919,-0.024324324,-0.07027027,-0.116216216,-0.156756757,-0.181081081,-0.191891892,-0.202702703,-0.210810811,-0.218918919,-0.224324324,-0.22972973,-0.232432432,-0.235135135,-0.240540541,-0.243243243,-0.243243243,-0.243243243,-0.243243243,-0.240540541,-0.237837838,-0.232432432,-0.224324324,-0.216216216,-0.205405405,-0.183783784,-0.159459459,-0.135135135,-0.110810811,-0.083783784,-0.067567568,-0.054054054,-0.045945946,-0.037837838,-0.035135135,-0.037837838,-0.037837838,-0.040540541,-0.043243243,-0.048648649,-0.054054054,-0.035135135,0.018918919,0.121621622,0.264864865,0.435135135,0.624324324,0.797297297,0.894594595,0.886486486,0.745945946,0.413513514,-0.054054054,-0.545945946,-0.943243243,-1.118918919,-1.127027027,-0.986486486,-0.743243243,-0.532432432,-0.394594595,-0.327027027,-0.3,-0.281081081,-0.259459459,-0.224324324,-0.194594595,-0.17027027,-0.143243243,-0.12972973,-0.118918919,-0.110810811,-0.105405405,-0.102702703,-0.1,-0.097297297,-0.097297297,-0.097297297,-0.094594595,-0.094594595,-0.091891892,-0.089189189,-0.086486486,-0.083783784,-0.081081081,-0.075675676,-0.07027027,-0.064864865,-0.056756757,-0.048648649,-0.040540541,-0.024324324,-0.008108108,0,0.010810811,0.018918919,0.027027027,0.035135135,0.040540541,0.051351351,0.059459459,0.067567568,0.075675676,0.094594595,0.132432432,0.167567568,0.194594595,0.216216216,0.235135135,0.256756757,0.278378378,0.291891892,0.305405405,0.313513514,0.316216216,0.313513514,0.302702703,0.289189189,0.272972973,0.248648649,0.22972973,0.202702703,0.167567568,0.137837838,0.113513514,0.091891892,0.067567568,0.035135135,0.002702703,-0.027027027,-0.056756757,-0.091891892,-0.121621622,-0.140540541,-0.151351351,-0.156756757,-0.162162162,-0.167567568,-0.17027027,-0.159459459,-0.140540541,-0.118918919,-0.097297297,-0.081081081,-0.064864865,-0.056756757,-0.051351351,-0.045945946,-0.037837838,-0.035135135,-0.032432432,-0.032432432,-0.035135135,-0.040540541,-0.045945946,-0.051351351,-0.056756757,-0.062162162,-0.072972973,-0.083783784,-0.097297297,-0.110810811,-0.118918919,-0.127027027,-0.132432432,-0.140540541,-0.143243243,-0.145945946,-0.143243243,-0.140540541,-0.137837838,-0.137837838,-0.135135135,-0.132432432,-0.12972973,-0.127027027,-0.124324324,-0.127027027,-0.132432432,-0.143243243,-0.151351351,-0.156756757,-0.167567568,-0.175675676,-0.183783784,-0.183783784,-0.181081081,-0.172972973,-0.162162162,-0.148648649,-0.127027027,-0.121621622,-0.116216216,-0.113513514,-0.110810811,-0.110810811,-0.118918919,-0.135135135,-0.162162162,-0.202702703,-0.224324324,-0.237837838,-0.245945946,-0.251351351,-0.251351351,-0.245945946,-0.237837838,-0.224324324,-0.2,-0.156756757,-0.075675676,0.021621622,0.159459459,0.340540541,0.532432432,0.675675676,0.683783784,0.583783784,0.251351351,-0.202702703,-0.67027027,-1.040540541,-1.186486486,-1.181081081,-1,-0.724324324,-0.475675676,-0.286486486,-0.159459459,-0.116216216,-0.102702703,-0.094594595,-0.091891892,-0.097297297,-0.108108108,-0.121621622,-0.12972973,-0.140540541,-0.148648649,-0.156756757,-0.162162162,-0.167567568,-0.17027027,-0.172972973,-0.172972973,-0.175675676,-0.178378378,-0.178378378,-0.181081081,-0.183783784,-0.183783784,-0.186486486,-0.183783784,-0.175675676,-0.164864865,-0.154054054,-0.143243243,-0.12972973,-0.113513514,-0.105405405,-0.094594595,-0.075675676,-0.040540541,0,0.040540541,0.091891892,0.135135135,0.175675676,0.210810811,0.240540541,0.262162162,0.283783784,0.302702703,0.316216216,0.327027027,0.332432432,0.335135135,0.337837838,0.340540541,0.340540541,0.343243243,0.345945946,0.345945946,0.345945946,0.343243243,0.340540541,0.337837838,0.332432432,0.324324324,0.316216216,0.308108108,0.3,0.291891892,0.286486486,0.278378378,0.27027027,0.262162162,0.256756757,0.251351351,0.245945946,0.240540541,0.22972973,0.218918919,0.208108108,0.197297297,0.189189189,0.186486486,0.181081081,0.178378378,0.175675676,0.172972973,0.17027027,0.167567568,0.17027027,0.172972973,0.175675676,0.181081081,0.183783784,0.189189189,0.197297297,0.205405405,0.205405405,0.197297297,0.181081081,0.164864865,0.145945946,0.127027027,0.108108108,0.094594595,0.083783784,0.075675676,0.067567568,0.059459459,0.054054054,0.045945946,0.043243243,0.037837838,0.032432432,0.024324324,0.010810811,0,-0.013513514,-0.027027027,-0.037837838,-0.045945946,-0.054054054,-0.062162162,-0.07027027,-0.081081081,-0.091891892,-0.1,-0.110810811,-0.121621622,-0.132432432,-0.140540541,-0.143243243,-0.140540541,-0.12972973,-0.118918919,-0.105405405,-0.089189189,-0.067567568,-0.045945946,-0.02972973,-0.018918919,-0.010810811,-0.005405405,0,0.002702703,0.008108108,0.010810811,0.013513514,0.013513514,0.013513514,0.010810811,0.008108108,0.002702703,0,-0.005405405,-0.013513514,-0.021621622,-0.035135135,-0.062162162,-0.091891892,-0.110810811,-0.124324324,-0.135135135,-0.143243243,-0.143243243,-0.137837838,-0.12972973,-0.118918919,-0.094594595,-0.054054054,0.008108108,0.102702703,0.237837838,0.418918919,0.62972973,0.778378378,0.781081081,0.651351351,0.294594595,-0.178378378,-0.667567568,-1.037837838,-1.154054054,-1.140540541,-0.956756757,-0.724324324,-0.52972973,-0.394594595,-0.308108108,-0.237837838,-0.194594595,-0.17027027,-0.159459459,-0.148648649,-0.140540541,-0.135135135,-0.135135135,-0.135135135,-0.140540541,-0.145945946,-0.151351351,-0.154054054,-0.159459459,-0.164864865,-0.17027027,-0.175675676,-0.181081081,-0.183783784,-0.186486486,-0.189189189,-0.189189189,-0.186486486,-0.183783784,-0.181081081,-0.175675676,-0.17027027,-0.162162162,-0.154054054,-0.143243243,-0.127027027,-0.091891892,-0.059459459,-0.013513514,0.035135135,0.086486486,0.132432432,0.17027027,0.210810811,0.232432432,0.243243243,0.254054054,0.259459459,0.262162162,0.264864865,0.262162162,0.256756757,0.251351351,0.243243243,0.235135135,0.227027027,0.213513514,0.197297297,0.181081081,0.164864865,0.140540541,0.113513514,0.086486486,0.062162162,0.037837838,0.013513514,-0.008108108,-0.024324324,-0.040540541,-0.056756757,-0.067567568,-0.078378378,-0.086486486,-0.091891892,-0.094594595,-0.094594595,-0.094594595,-0.089189189,-0.086486486,-0.083783784,-0.078378378,-0.067567568,-0.067567568,-0.083783784,-0.102702703,-0.124324324,-0.145945946,-0.172972973,-0.194594595,-0.2,-0.205405405,-0.210810811,-0.210810811,-0.194594595,-0.143243243,-0.089189189,-0.1,-0.197297297,-0.416216216,-0.675675676,-0.959459459,-1.254054054,-1.497297297,-1.608108108,-1.591891892,-1.4,-0.981081081,-0.427027027,0.108108108,0.489189189,0.689189189,0.751351351,0.72972973,0.57027027,0.283783784,-0.132432432,-0.662162162,-1.132432432,-1.364864865,-1.302702703,-1.062162162,-0.813513514,-0.621621622,-0.497297297,-0.440540541,-0.421621622,-0.445945946,-0.478378378,-0.502702703,-0.483783784,-0.427027027,-0.337837838,-0.248648649,-0.175675676,-0.113513514,-0.072972973,-0.045945946,-0.024324324,-0.016216216,-0.018918919,-0.027027027,-0.035135135,-0.043243243,-0.048648649,-0.056756757,-0.062162162,-0.07027027,-0.083783784,-0.064864865,-0.048648649,-0.035135135,-0.024324324,-0.010810811,0,0.045945946,0.102702703,0.118918919,0.12972973,0.140540541,0.148648649,0.156756757,0.167567568,0.183783784,0.164864865,0.140540541,0.121621622,0.140540541,0.167567568,0.186486486,0.17027027,0.156756757,0.148648649,0.140540541,0.12972973,0.121621622,0.108108108,0.083783784,0.051351351,0.032432432,0.021621622,0.008108108,-0.005405405,-0.021621622,-0.037837838,-0.037837838,-0.018918919,-0.002702703,0.008108108,0.021621622,0.032432432,0.040540541,0.054054054,0.067567568,0.040540541,0.005405405,-0.016216216,0,0.016216216,0.032432432,0.02972973,0,-0.035135135,-0.07027027,-0.089189189,-0.124324324,-0.186486486,-0.251351351,-0.275675676,-0.275675676,-0.256756757,-0.237837838,-0.216216216,-0.2,-0.181081081,-0.151351351,-0.12972973,-0.118918919,-0.108108108,-0.089189189,-0.056756757,0.037837838,0.189189189,0.359459459,0.537837838,0.691891892,0.772972973,0.716216216,0.513513514,0.148648649,-0.316216216,-0.764864865,-1.081081081,-1.197297297,-1.091891892,-0.856756757,-0.578378378,-0.327027027,-0.12972973,0.002702703,0.043243243,0.059459459,0.056756757,0.037837838,0.008108108,-0.021621622,-0.051351351,-0.086486486,-0.113513514,-0.132432432,-0.140540541,-0.132432432,-0.118918919,-0.108108108,-0.1,-0.094594595,-0.089189189,-0.083783784,-0.078378378,-0.075675676,-0.07027027,-0.062162162,-0.054054054,-0.032432432,-0.005405405,0.013513514,0,-0.037837838,-0.056756757,-0.067567568,-0.072972973,-0.072972973,-0.067567568,-0.056756757,-0.027027027,0.032432432,0.113513514,0.186486486,0.251351351,0.283783784,0.310810811,0.340540541,0.367567568,0.381081081,0.359459459,0.3,0.213513514,0.154054054,0.116216216,0.072972973,0.024324324,-0.013513514,-0.037837838,-0.048648649,-0.037837838,-0.018918919,-0.002702703,0.013513514,0.021621622,0.016216216,0.005405405,-0.027027027,-0.081081081,-0.148648649,-0.208108108,-0.237837838,-0.264864865,-0.297297297,-0.324324324,-0.345945946,-0.348648649,-0.32972973,-0.302702703,-0.267567568,-0.243243243,-0.224324324,-0.208108108,-0.197297297,-0.191891892,-0.183783784,-0.178378378,-0.178378378,-0.181081081,-0.186486486,-0.194594595,-0.210810811,-0.240540541,-0.259459459,-0.27027027,-0.281081081,-0.286486486,-0.289189189,-0.289189189,-0.286486486,-0.281081081,-0.278378378,-0.272972973,-0.262162162,-0.262162162,-0.264864865,-0.267567568,-0.272972973,-0.272972973,-0.262162162,-0.251351351,-0.243243243,-0.237837838,-0.237837838,-0.243243243,-0.251351351,-0.272972973,-0.324324324,-0.337837838,-0.345945946,-0.351351351,-0.354054054,-0.351351351,-0.343243243,-0.32972973,-0.316216216,-0.286486486,-0.245945946,-0.213513514,-0.167567568,-0.064864865,0.108108108,0.348648649,0.589189189,0.745945946,0.756756757,0.640540541,0.278378378,-0.213513514,-0.718918919,-1.083783784,-1.2,-1.186486486,-0.991891892,-0.748648649,-0.567567568,-0.432432432,-0.354054054,-0.310810811,-0.289189189,-0.278378378,-0.272972973,-0.264864865,-0.256756757,-0.251351351,-0.245945946,-0.243243243,-0.235135135,-0.224324324,-0.208108108,-0.183783784,-0.148648649,-0.116216216,-0.094594595,-0.081081081,-0.105405405,-0.127027027,-0.137837838,-0.148648649,-0.154054054,-0.154054054,-0.148648649,-0.140540541,-0.12972973,-0.110810811,-0.075675676,-0.051351351,-0.035135135,-0.018918919,-0.008108108,0,0.005405405,0.010810811,0.018918919,0.027027027,0.035135135,0.043243243,0.056756757,0.07027027,0.086486486,0.108108108,0.143243243,0.189189189,0.216216216,0.232432432,0.245945946,0.248648649,0.245945946,0.237837838,0.227027027,0.210810811,0.181081081,0.156756757,0.140540541,0.124324324,0.108108108,0.081081081,0.054054054,0.040540541,0.02972973,0.021621622,0.013513514,0.005405405,0,-0.002702703,-0.008108108,-0.010810811,-0.013513514,-0.010810811,-0.008108108,-0.005405405,0,0.005405405,0.016216216,-0.005405405,-0.021621622,-0.032432432,-0.043243243,-0.048648649,-0.051351351,-0.048648649,-0.040540541,-0.032432432,-0.021621622,-0.013513514,-0.002702703,0.008108108,0.016216216,0.024324324,0.032432432,0.043243243,0.056756757,0.059459459,0.045945946,0.040540541,0.035135135,0.02972973,0.027027027,0.024324324,0.021621622,0.018918919,0.018918919,0.018918919,0.018918919,0.018918919,0.021621622,0.024324324,0.024324324,0.02972973,0.035135135,0.013513514,-0.005405405,-0.024324324,-0.024324324,-0.008108108,0.027027027,0.097297297,0.210810811,0.378378378,0.591891892,0.802702703,0.883783784,0.862162162,0.67027027,0.283783784,-0.197297297,-0.648648649,-0.956756757,-1.064864865,-0.983783784,-0.797297297,-0.597297297,-0.413513514,-0.278378378,-0.178378378,-0.143243243,-0.135135135,-0.12972973,-0.127027027,-0.118918919,-0.105405405,-0.083783784,-0.054054054,-0.021621622,-0.016216216,-0.016216216,-0.013513514,-0.016216216,-0.018918919,-0.018918919,-0.018918919,-0.018918919,-0.016216216,-0.016216216,-0.016216216,-0.013513514,-0.013513514,-0.010810811,-0.008108108,-0.002702703,0,0.005405405,0.010810811,0.024324324,0.037837838,0.054054054,0.075675676,0.110810811,0.148648649,0.167567568,0.181081081,0.194594595,0.208108108,0.248648649,0.286486486,0.294594595,0.302702703,0.308108108,0.310810811,0.313513514,0.313513514,0.313513514,0.310810811,0.310810811,0.305405405,0.3,0.291891892,0.283783784,0.27027027,0.245945946,0.227027027,0.208108108,0.189189189,0.162162162,0.127027027,0.086486486,0.062162162,0.048648649,0.037837838,0.032432432,0.027027027,0.021621622,0.010810811,0.010810811,0.024324324,0.032432432,0.035135135,0.040540541,0.043243243,0.043243243,0.045945946,0.045945946,0.045945946,0.045945946,0.043243243,0.037837838,0.032432432,0.02972973,0.024324324,0.016216216,0.008108108,0.002702703,0,-0.002702703,0,0,0.002702703,0.005405405,0.010810811,0.018918919,0,-0.010810811,-0.018918919,-0.02972973,-0.035135135,-0.037837838,-0.035135135,-0.02972973,-0.021621622,-0.010810811,0.002702703,0.024324324,-0.002702703,-0.027027027,-0.043243243,-0.054054054,-0.064864865,-0.072972973,-0.078378378,-0.086486486,-0.1,-0.094594595,-0.07027027,-0.051351351,-0.037837838,-0.024324324,-0.013513514,0,0.008108108,0.018918919,0.032432432,0.045945946,0.056756757,0.062162162,0.075675676,0.089189189,0.07027027,0.043243243,0.013513514,-0.002702703,-0.013513514,-0.02972973,-0.054054054,-0.075675676,-0.1,-0.113513514,-0.113513514,-0.116216216,-0.116216216,-0.116216216,-0.118918919,-0.118918919,-0.121621622,-0.121621622,-0.121621622,-0.118918919,-0.118918919,-0.116216216,-0.110810811,-0.108108108,-0.102702703,-0.097297297,-0.091891892,-0.086486486,-0.081081081,-0.07027027,-0.059459459,-0.051351351,-0.045945946,-0.043243243,-0.037837838,-0.035135135,-0.032432432,-0.027027027,-0.024324324,-0.018918919,-0.016216216,-0.013513514,-0.008108108,0,0.013513514,0.064864865,0.167567568,0.294594595,0.445945946,0.613513514,0.756756757,0.824324324,0.751351351,0.502702703,0.102702703,-0.386486486,-0.835135135,-1.137837838,-1.237837838,-1.156756757,-0.940540541,-0.7,-0.516216216,-0.402702703,-0.321621622,-0.278378378,-0.243243243,-0.208108108,-0.175675676,-0.137837838,-0.091891892,-0.045945946,-0.013513514,0.002702703,0.013513514,0.021621622,0.027027027,0.032432432,0.037837838,0.040540541,0.043243243,0.043243243,0.037837838,0.027027027,0.018918919,0.013513514,0.008108108,0,-0.002702703,-0.008108108,-0.010810811,-0.013513514,-0.013513514,-0.010810811,-0.010810811,-0.010810811,-0.008108108,-0.005405405,-0.005405405,-0.002702703,0,0,0.005405405,0.010810811,0.018918919,0.027027027,0.040540541,0.062162162,0.086486486,0.121621622,0.162162162,0.202702703,0.240540541,0.256756757,0.267567568,0.278378378,0.283783784,0.286486486,0.286486486,0.283783784,0.281081081,0.275675676,0.275675676,0.272972973,0.27027027,0.267567568,0.262162162,0.259459459,0.251351351,0.243243243,0.22972973,0.205405405,0.159459459,0.118918919,0.091891892,0.078378378,0.059459459,0.024324324,0,-0.010810811,-0.018918919,-0.027027027,-0.032432432,-0.037837838,-0.040540541,-0.051351351,-0.067567568,-0.045945946,-0.018918919,0.002702703,0.024324324,0.037837838,0.048648649,0.056756757,0.059459459,0.054054054,0.040540541,0.027027027,0.010810811,-0.005405405,-0.016216216,-0.021621622,-0.021621622,-0.027027027,-0.02972973,-0.027027027,-0.010810811,0,0.010810811,0.018918919,0.02972973,0.037837838,0.051351351,0.097297297,0.17027027,0.286486486,0.467567568,0.691891892,0.9,1,0.924324324,0.643243243,0.183783784,-0.348648649,-0.821621622,-1.072972973,-1.097297297,-0.967567568,-0.683783784,-0.397297297,-0.178378378,-0.089189189,-0.083783784,-0.145945946,-0.221621622,-0.275675676,-0.294594595,-0.3,-0.291891892,-0.278378378,-0.256756757,-0.218918919,-0.197297297,-0.189189189,-0.181081081,-0.178378378,-0.172972973,-0.167567568,-0.162162162,-0.154054054,-0.148648649,-0.143243243,-0.137837838,-0.127027027,-0.113513514,-0.091891892,-0.072972973,-0.056756757,-0.032432432,0,0.02972973,0.062162162,0.089189189,0.108108108,0.118918919,0.124324324,0.127027027,0.12972973,0.132432432,0.135135135,0.135135135,0.137837838,0.140540541,0.140540541,0.143243243,0.143243243,0.145945946,0.145945946,0.148648649,0.156756757,0.132432432,0.105405405,0.086486486,0.072972973,0.059459459,0.043243243,0.024324324,0,-0.024324324,-0.043243243,-0.059459459,-0.07027027,-0.086486486,-0.105405405,-0.110810811,-0.113513514,-0.116216216,-0.118918919,-0.121621622,-0.121621622,-0.124324324,-0.132432432,-0.140540541,-0.148648649,-0.159459459,-0.167567568,-0.175675676,-0.181081081,-0.189189189,-0.197297297,-0.202702703,-0.208108108,-0.213513514,-0.218918919,-0.224324324,-0.232432432,-0.243243243,-0.254054054,-0.264864865,-0.275675676,-0.283783784,-0.289189189,-0.286486486,-0.272972973,-0.256756757,-0.243243243,-0.22972973,-0.213513514,-0.2,-0.189189189,-0.181081081,-0.175675676,-0.17027027,-0.164864865,-0.159459459,-0.154054054,-0.151351351,-0.145945946,-0.140540541,-0.137837838,-0.132432432,-0.127027027,-0.116216216,-0.075675676,0.010810811,0.12972973,0.264864865,0.362162162,0.394594595,0.351351351,0.216216216,-0.086486486,-0.486486486,-0.902702703,-1.22972973,-1.351351351,-1.343243243,-1.164864865,-0.924324324,-0.710810811,-0.540540541,-0.421621622,-0.340540541,-0.283783784,-0.267567568,-0.256756757,-0.248648649,-0.237837838,-0.22972973,-0.227027027,-0.224324324,-0.218918919,-0.216216216,-0.213513514,-0.210810811,-0.208108108,-0.205405405,-0.202702703,-0.2,-0.197297297,-0.191891892,-0.189189189,-0.183783784,-0.178378378,-0.167567568,-0.143243243,-0.124324324,-0.102702703,-0.07027027,-0.045945946,-0.027027027,-0.005405405,0.010810811,0.024324324,0.040540541,0.056756757,0.083783784,0.116216216,0.145945946,0.178378378,0.205405405,0.240540541,0.275675676,0.297297297,0.313513514,0.321621622,0.32972973,0.335135135,0.337837838,0.332432432,0.324324324,0.310810811,0.294594595,0.27027027,0.248648649,0.224324324,0.202702703,0.175675676,0.140540541,0.102702703,0.075675676,0.059459459,0.040540541,0.018918919,-0.002702703,-0.032432432,-0.054054054,-0.072972973,-0.083783784,-0.097297297,-0.108108108,-0.118918919,-0.127027027,-0.135135135,-0.140540541,-0.145945946,-0.145945946,-0.140540541,-0.132432432,-0.121621622,-0.108108108,-0.091891892,-0.072972973,-0.059459459,-0.056756757,-0.054054054,-0.051351351,-0.048648649,-0.048648649,-0.045945946,-0.043243243,-0.040540541,-0.037837838,-0.032432432,-0.027027027,-0.016216216,0,0.059459459,0.181081081,0.321621622,0.435135135,0.486486486,0.481081081,0.408108108,0.208108108,-0.102702703,-0.481081081,-0.840540541,-1.089189189,-1.164864865,-1.056756757,-0.835135135,-0.613513514,-0.451351351,-0.348648649,-0.286486486,-0.243243243,-0.213513514,-0.197297297,-0.186486486,-0.178378378,-0.172972973,-0.167567568,-0.162162162,-0.145945946,-0.121621622,-0.102702703,-0.091891892,-0.086486486,-0.097297297,-0.121621622,-0.162162162,-0.197297297,-0.208108108,-0.216216216,-0.218918919,-0.221621622,-0.216216216,-0.205405405,-0.194594595,-0.183783784,-0.17027027,-0.159459459,-0.148648649,-0.140540541,-0.132432432,-0.118918919,-0.1,-0.081081081,-0.059459459,-0.037837838,-0.018918919,0,0.032432432,0.072972973,0.116216216,0.164864865,0.216216216,0.251351351,0.27027027,0.283783784,0.283783784,0.272972973,0.254054054,0.224324324,0.183783784,0.143243243,0.102702703,0.075675676,0.062162162,0.048648649,0.037837838,0.027027027,0.005405405,-0.027027027,-0.062162162,-0.1,-0.124324324,-0.137837838,-0.148648649,-0.159459459,-0.167567568,-0.175675676,-0.183783784,-0.194594595,-0.202702703,-0.205405405,-0.208108108,-0.210810811,-0.213513514,-0.218918919,-0.216216216,-0.191891892,-0.151351351,-0.110810811,-0.094594595,-0.083783784,-0.075675676,-0.072972973,-0.07027027,-0.072972973,-0.078378378,-0.086486486,-0.094594595,-0.102702703,-0.110810811,-0.116216216,-0.121621622,-0.127027027,-0.132432432,-0.137837838,-0.140540541,-0.145945946,-0.151351351,-0.154054054,-0.159459459,-0.167567568,-0.17027027,-0.17027027,-0.164864865,-0.156756757,-0.148648649,-0.140540541,-0.132432432,-0.127027027,-0.118918919,-0.110810811,-0.1,-0.089189189,-0.078378378,-0.064864865,-0.054054054,-0.040540541,-0.02972973,-0.024324324,-0.018918919,-0.005405405,0.018918919,0.067567568,0.148648649,0.259459459,0.391891892,0.518918919,0.578378378,0.564864865,0.443243243,0.162162162,-0.22972973,-0.651351351,-0.983783784,-1.124324324,-1.056756757,-0.843243243,-0.581081081,-0.345945946,-0.172972973,-0.062162162,-0.018918919,-0.002702703,0.005405405,0.005405405,-0.005405405,-0.024324324,-0.037837838,-0.018918919,0.010810811,0.048648649,0.07027027,0.083783784,0.089189189,0.078378378,0.064864865,0.056756757,0.051351351,0.048648649,0.045945946,0.043243243,0.040540541,0.037837838,0.037837838,0.035135135,0.032432432,0.032432432,0.032432432,0.035135135,0.037837838,0.040540541,0.045945946,0.048648649,0.054054054,0.059459459,0.067567568,0.078378378,0.1,0.121621622,0.151351351,0.191891892,0.235135135,0.275675676,0.318918919,0.364864865,0.391891892,0.405405405,0.416216216,0.424324324,0.427027027,0.427027027,0.424324324,0.418918919,0.410810811,0.4,0.378378378,0.343243243,0.316216216,0.3,0.281081081,0.262162162,0.232432432,0.194594595,0.175675676,0.164864865,0.156756757,0.151351351,0.148648649,0.148648649,0.148648649,0.148648649,0.151351351,0.151351351,0.154054054,0.156756757,0.162162162,0.172972973,0.172972973,0.151351351,0.12972973,0.110810811,0.1,0.091891892,0.089189189,0.086486486,0.083783784,0.081081081,0.078378378,0.075675676,0.075675676,0.075675676,0.078378378,0.078378378,0.078378378,0.081081081,0.081081081,0.083783784,0.086486486,0.091891892,0.091891892,0.091891892,0.086486486,0.083783784,0.078378378,0.075675676,0.072972973,0.067567568,0.062162162,0.054054054,0.045945946,0.037837838,0.02972973,0.021621622,0.010810811,0,-0.016216216,-0.032432432,-0.045945946,-0.062162162,-0.072972973,-0.083783784,-0.094594595,-0.105405405,-0.113513514,-0.118918919,-0.127027027,-0.132432432,-0.135135135,-0.135135135,-0.135135135,-0.135135135,-0.135135135,-0.132432432,-0.132432432,-0.132432432,-0.132432432,-0.132432432,-0.132432432,-0.12972973,-0.124324324,-0.118918919,-0.110810811,-0.105405405,-0.097297297,-0.086486486
