0.192462988,0.212651413,0.232839838,0.253028264,0.273216689,0.293405114,0.31359354,0.333781965,0.35397039,0.374158816,0.394347241,0.414535666,0.434724092,0.454912517,0.475100942,0.495289367,0.515477793,0.535666218,0.555854643,0.576043069,0.596231494,0.616419919,0.636608345,0.65679677,0.676985195,0.69717362,0.717362046,0.737550471,0.757738896,0.777927322,0.798115747,0.818304172,0.838492598,0.858681023,0.878869448,0.899057873,0.919246299,0.939434724,0.959623149,0.979811575,1,1.020188425,1.040376851,1.060565276,1.080753701,1.100942127,1.121130552,1.141318977,1.161507402,1.181695828,1.201884253,1.222072678,1.242261104,1.262449529,1.282637954,1.30282638,1.323014805,1.34320323,1.363391655,1.383580081,1.403768506,1.423956931,1.444145357,1.464333782,1.484522207,1.504710633,1.524899058,1.545087483,1.565275908,1.585464334,1.605652759,1.625841184,1.64602961,1.666218035,1.68640646,1.706594886,1.726783311,1.746971736,1.767160162,1.787348587,1.807537012,1.827725437,1.847913863,1.868102288,1.888290713,1.908479139,1.928667564,1.948855989,1.969044415,1.98923284,2.009421265,2.02960969,2.049798116,2.069986541,2.090174966,2.110363392,2.130551817,2.150740242,2.170928668,2.191117093,2.211305518,2.231493943,2.251682369,2.271870794,2.292059219,2.312247645,2.33243607,2.352624495,2.372812921,2.393001346,2.413189771,2.433378197,2.453566622,2.473755047,2.493943472,2.514131898,2.534320323,2.554508748,2.574697174,2.594885599,2.615074024,2.63526245,2.655450875,2.6756393,2.695827725,2.716016151,2.736204576,2.756393001,2.776581427,2.796769852,2.816958277,2.837146703,2.857335128,2.877523553,2.897711978,2.917900404,2.938088829,2.958277254,2.97846568,2.998654105,3.01884253,3.039030956,3.059219381,3.079407806,3.099596231,3.119784657,3.139973082,3.160161507,3.180349933,3.200538358,3.220726783,3.240915209,3.261103634,3.281292059,3.301480485,3.32166891,3.341857335,3.36204576,3.382234186,3.402422611,3.422611036,3.442799462,3.462987887,3.483176312,3.503364738,3.523553163,3.543741588,3.563930013,3.584118439,3.604306864,3.624495289,3.644683715,3.66487214,3.685060565,3.705248991,3.725437416,3.745625841,3.765814266,3.786002692,3.806191117,3.826379542,3.846567968,3.866756393,3.886944818,3.907133244,3.927321669,3.947510094,3.96769852,3.987886945,4.00807537,4.028263795,4.048452221,4.068640646,4.088829071,4.109017497,4.129205922,4.149394347,4.169582773,4.189771198,4.209959623,4.230148048,4.250336474,4.270524899,4.290713324,4.31090175,4.331090175,4.3512786,4.371467026,4.391655451,4.411843876,4.432032301,4.452220727,4.472409152,4.492597577,4.512786003,4.532974428,4.553162853,4.573351279,4.593539704,4.613728129,4.633916555,4.65410498,4.674293405,4.69448183,4.714670256,4.734858681,4.755047106,4.775235532,4.795423957,4.815612382,4.835800808,4.855989233,4.876177658,4.896366083,4.916554509,4.936742934,4.956931359,4.977119785,4.99730821,5.017496635,5.037685061,5.057873486,5.078061911,5.098250336,5.118438762,5.138627187,5.158815612,5.179004038,5.199192463,5.219380888,5.239569314,5.259757739,5.279946164,5.30013459,5.320323015,5.34051144,5.360699865,5.380888291,5.401076716,5.421265141,5.441453567,5.461641992,5.481830417,5.502018843,5.522207268,5.542395693,5.562584118,5.582772544,5.602960969,5.623149394,5.64333782,5.663526245,5.68371467,5.703903096,5.724091521,5.744279946,5.764468371,5.784656797,5.804845222,5.825033647,5.845222073,5.865410498,5.885598923,5.905787349,5.925975774,5.946164199,5.966352624,5.98654105,6.006729475,6.0269179,6.047106326,6.067294751,6.087483176,6.107671602,6.127860027,6.148048452,6.168236878,6.188425303,6.208613728,6.228802153,6.248990579,6.269179004,6.289367429,6.309555855,6.32974428,6.349932705,6.370121131,6.390309556,6.410497981,6.430686406,6.450874832,6.471063257,6.491251682,6.511440108,6.531628533,6.551816958,6.572005384,6.592193809,6.612382234,6.632570659,6.652759085,6.67294751,6.693135935,6.713324361,6.733512786,6.753701211,6.773889637,6.794078062,6.814266487,6.834454913,6.854643338,6.874831763,6.895020188,6.915208614,6.935397039,6.955585464,6.97577389,6.995962315,7.01615074,7.036339166,7.056527591,7.076716016,7.096904441,7.117092867,7.137281292,7.157469717,7.177658143,7.197846568,7.218034993,7.238223419,7.258411844,7.278600269,7.298788694,7.31897712,7.339165545,7.35935397,7.379542396,7.399730821,7.419919246,7.440107672,7.460296097,7.480484522,7.500672948,7.520861373,7.541049798,7.561238223,7.581426649,7.601615074,7.621803499,7.641991925,7.66218035,7.682368775,7.702557201,7.722745626,7.742934051,7.763122476,7.783310902,7.803499327,7.823687752,7.843876178,7.864064603,7.884253028,7.904441454,7.924629879,7.944818304,7.965006729,7.985195155,8.00538358,8.025572005,8.045760431,8.065948856,8.086137281,8.106325707,8.126514132,8.146702557,8.166890983,8.187079408,8.207267833,8.227456258,8.247644684,8.267833109,8.288021534,8.30820996,8.328398385,8.34858681,8.368775236,8.388963661,8.409152086,8.429340511,8.449528937,8.469717362,8.489905787,8.510094213,8.530282638,8.550471063,8.570659489,8.590847914,8.611036339,8.631224764,8.65141319,8.671601615,8.69179004,8.711978466,8.732166891,8.752355316,8.772543742,8.792732167,8.812920592,8.833109017,8.853297443,8.873485868,8.893674293,8.913862719,8.934051144,8.954239569,8.974427995,8.99461642,9.014804845,9.034993271,9.055181696,9.075370121,9.095558546,9.115746972,9.135935397,9.156123822,9.176312248,9.196500673,9.216689098,9.236877524,9.257065949,9.277254374,9.297442799,9.317631225,9.33781965,9.358008075,9.378196501,9.398384926,9.418573351,9.438761777,9.458950202,9.479138627,9.499327052,9.519515478,9.539703903,9.559892328,9.580080754,9.600269179,9.620457604,9.64064603,9.660834455,9.68102288,9.701211306,9.721399731,9.741588156,9.761776581,9.781965007,9.802153432,9.822341857,9.842530283,9.862718708,9.882907133,9.903095559,9.923283984,9.943472409,9.963660834,9.98384926,10.00403769,10.02422611,10.04441454,10.06460296,10.08479139,10.10497981,10.12516824,10.14535666,10.16554509,10.18573351,10.20592194,10.22611036,10.24629879,10.26648721,10.28667564,10.30686406,10.32705249,10.34724092,10.36742934,10.38761777,10.40780619,10.42799462,10.44818304,10.46837147,10.48855989,10.50874832,10.52893674,10.54912517,10.56931359,10.58950202,10.60969044,10.62987887,10.65006729,10.67025572,10.69044415,10.71063257,10.730821,10.75100942,10.77119785,10.79138627,10.8115747,10.83176312,10.85195155,10.87213997,10.8923284,10.91251682,10.93270525,10.95289367,10.9730821,10.99327052,11.01345895,11.03364738,11.0538358,11.07402423,11.09421265,11.11440108,11.1345895,11.15477793,11.17496635,11.19515478,11.2153432,11.23553163,11.25572005,11.27590848,11.2960969,11.31628533,11.33647376,11.35666218,11.37685061,11.39703903,11.41722746,11.43741588,11.45760431,11.47779273,11.49798116,11.51816958,11.53835801,11.55854643,11.57873486,11.59892328,11.61911171,11.63930013,11.65948856,11.67967699,11.69986541,11.72005384,11.74024226,11.76043069,11.78061911,11.80080754,11.82099596,11.84118439,11.86137281,11.88156124,11.90174966,11.92193809,11.94212651,11.96231494,11.98250336,12.00269179,12.02288022,12.04306864,12.06325707,12.08344549,12.10363392,12.12382234,12.14401077,12.16419919,12.18438762,12.20457604,12.22476447,12.24495289,12.26514132,12.28532974,12.30551817,12.32570659,12.34589502,12.36608345,12.38627187,12.4064603,12.42664872,12.44683715,12.46702557,12.487214,12.50740242,12.52759085,12.54777927,12.5679677,12.58815612,12.60834455,12.62853297,12.6487214,12.66890983,12.68909825,12.70928668,12.7294751,12.74966353,12.76985195,12.79004038,12.8102288,12.83041723,12.85060565,12.87079408,12.8909825,12.91117093,12.93135935,12.95154778,12.9717362,12.99192463,13.01211306,13.03230148,13.05248991,13.07267833,13.09286676,13.11305518,13.13324361,13.15343203,13.17362046,13.19380888,13.21399731,13.23418573,13.25437416,13.27456258,13.29475101,13.31493943,13.33512786,13.35531629,13.37550471,13.39569314,13.41588156,13.43606999,13.45625841,13.47644684,13.49663526,13.51682369,13.53701211,13.55720054,13.57738896,13.59757739,13.61776581,13.63795424,13.65814266,13.67833109,13.69851952,13.71870794,13.73889637,13.75908479,13.77927322,13.79946164,13.81965007,13.83983849,13.86002692,13.88021534,13.90040377,13.92059219,13.94078062,13.96096904,13.98115747,14.0013459,14.02153432,14.04172275,14.06191117,14.0820996,14.10228802,14.12247645,14.14266487,14.1628533,14.18304172,14.20323015,14.22341857,14.243607,14.26379542,14.28398385,14.30417227,14.3243607,14.34454913,14.36473755,14.38492598,14.4051144,14.42530283,14.44549125,14.46567968,14.4858681,14.50605653,14.52624495,14.54643338,14.5666218,14.58681023,14.60699865,14.62718708,14.6473755,14.66756393,14.68775236,14.70794078,14.72812921,14.74831763,14.76850606,14.78869448,14.80888291,14.82907133,14.84925976,14.86944818,14.88963661,14.90982503,14.93001346,14.95020188,14.97039031,14.99057873,15.01076716,15.03095559,15.05114401,15.07133244,15.09152086,15.11170929,15.13189771,15.15208614,15.17227456,15.19246299,15.21265141,15.23283984,15.25302826,15.27321669,15.29340511,15.31359354,15.33378197,15.35397039,15.37415882,15.39434724,15.41453567,15.43472409,15.45491252,15.47510094,15.49528937,15.51547779,15.53566622,15.55585464,15.57604307,15.59623149,15.61641992,15.63660834,15.65679677,15.6769852,15.69717362,15.71736205,15.73755047,15.7577389,15.77792732,15.79811575,15.81830417,15.8384926,15.85868102,15.87886945,15.89905787,15.9192463,15.93943472,15.95962315,15.97981157,16,16.02018843,16.04037685,16.06056528,16.0807537,16.10094213,16.12113055,16.14131898,16.1615074,16.18169583,16.20188425,16.22207268,16.2422611,16.26244953,16.28263795,16.30282638,16.3230148,16.34320323,16.36339166,16.38358008,16.40376851,16.42395693,16.44414536,16.46433378,16.48452221,16.50471063,16.52489906,16.54508748,16.56527591,16.58546433,16.60565276,16.62584118,16.64602961,16.66621803,16.68640646,16.70659489,16.72678331,16.74697174,16.76716016,16.78734859,16.80753701,16.82772544,16.84791386,16.86810229,16.88829071,16.90847914,16.92866756,16.94885599,16.96904441,16.98923284,17.00942127,17.02960969,17.04979812,17.06998654,17.09017497,17.11036339,17.13055182,17.15074024,17.17092867,17.19111709,17.21130552,17.23149394,17.25168237,17.27187079,17.29205922,17.31224764,17.33243607,17.3526245,17.37281292,17.39300135,17.41318977,17.4333782,17.45356662,17.47375505,17.49394347,17.5141319,17.53432032,17.55450875,17.57469717,17.5948856,17.61507402,17.63526245,17.65545087,17.6756393,17.69582773,17.71601615,17.73620458,17.756393,17.77658143,17.79676985,17.81695828,17.8371467,17.85733513,17.87752355,17.89771198,17.9179004,17.93808883,17.95827725,17.97846568,17.9986541,18.01884253,18.03903096,18.05921938,18.07940781,18.09959623,18.11978466,18.13997308,18.16016151,18.18034993,18.20053836,18.22072678,18.24091521,18.26110363,18.28129206,18.30148048,18.32166891,18.34185734,18.36204576,18.38223419,18.40242261,18.42261104,18.44279946,18.46298789,18.48317631,18.50336474,18.52355316,18.54374159,18.56393001,18.58411844,18.60430686,18.62449529,18.64468371,18.66487214,18.68506057,18.70524899,18.72543742,18.74562584,18.76581427,18.78600269,18.80619112,18.82637954,18.84656797,18.86675639,18.88694482,18.90713324,18.92732167,18.94751009,18.96769852,18.98788694,19.00807537,19.0282638,19.04845222,19.06864065,19.08882907,19.1090175,19.12920592,19.14939435,19.16958277,19.1897712,19.20995962,19.23014805,19.25033647,19.2705249,19.29071332,19.31090175,19.33109017,19.3512786,19.37146703,19.39165545,19.41184388,19.4320323,19.45222073,19.47240915,19.49259758,19.512786,19.53297443,19.55316285,19.57335128,19.5935397,19.61372813,19.63391655,19.65410498,19.67429341,19.69448183,19.71467026,19.73485868,19.75504711,19.77523553,19.79542396,19.81561238,19.83580081,19.85598923,19.87617766,19.89636608,19.91655451,19.93674293,19.95693136,19.97711978,19.99730821,20.01749664,20.03768506,20.05787349,20.07806191,20.09825034,20.11843876,20.13862719,20.15881561,20.17900404,20.19919246,20.21938089,20.23956931,20.25975774,20.27994616,20.30013459,20.32032301,20.34051144,20.36069987,20.38088829,20.40107672,20.42126514,20.44145357,20.46164199,20.48183042,20.50201884,20.52220727,20.54239569,20.56258412,20.58277254,20.60296097,20.62314939,20.64333782,20.66352624,20.68371467,20.7039031,20.72409152,20.74427995,20.76446837,20.7846568,20.80484522,20.82503365,20.84522207,20.8654105,20.88559892,20.90578735,20.92597577,20.9461642,20.96635262,20.98654105,21.00672948,21.0269179,21.04710633,21.06729475,21.08748318,21.1076716,21.12786003,21.14804845,21.16823688,21.1884253,21.20861373,21.22880215,21.24899058,21.269179,21.28936743,21.30955585,21.32974428,21.34993271,21.37012113,21.39030956,21.41049798,21.43068641,21.45087483,21.47106326,21.49125168,21.51144011,21.53162853,21.55181696,21.57200538,21.59219381,21.61238223,21.63257066,21.65275908,21.67294751,21.69313594,21.71332436,21.73351279,21.75370121,21.77388964,21.79407806,21.81426649,21.83445491,21.85464334,21.87483176,21.89502019,21.91520861,21.93539704,21.95558546,21.97577389,21.99596231,22.01615074,22.03633917,22.05652759,22.07671602,22.09690444,22.11709287,22.13728129,22.15746972,22.17765814,22.19784657,22.21803499,22.23822342,22.25841184,22.27860027,22.29878869,22.31897712,22.33916555,22.35935397,22.3795424,22.39973082,22.41991925,22.44010767,22.4602961,22.48048452,22.50067295,22.52086137,22.5410498,22.56123822,22.58142665,22.60161507,22.6218035,22.64199192,22.66218035,22.68236878,22.7025572,22.72274563,22.74293405,22.76312248,22.7833109,22.80349933,22.82368775,22.84387618,22.8640646,22.88425303,22.90444145,22.92462988,22.9448183,22.96500673,22.98519515,23.00538358,23.02557201,23.04576043,23.06594886,23.08613728,23.10632571,23.12651413,23.14670256,23.16689098,23.18707941,23.20726783,23.22745626,23.24764468,23.26783311,23.28802153,23.30820996,23.32839838,23.34858681,23.36877524,23.38896366,23.40915209,23.42934051,23.44952894,23.46971736,23.48990579,23.51009421,23.53028264,23.55047106,23.57065949,23.59084791,23.61103634,23.63122476,23.65141319,23.67160162,23.69179004,23.71197847,23.73216689,23.75235532,23.77254374,23.79273217,23.81292059,23.83310902,23.85329744,23.87348587,23.89367429,23.91386272,23.93405114,23.95423957,23.97442799,23.99461642,24.01480485,24.03499327,24.0551817,24.07537012,24.09555855,24.11574697,24.1359354,24.15612382,24.17631225,24.19650067,24.2166891,24.23687752,24.25706595,24.27725437,24.2974428,24.31763122,24.33781965,24.35800808,24.3781965,24.39838493,24.41857335,24.43876178,24.4589502,24.47913863,24.49932705,24.51951548,24.5397039,24.55989233,24.58008075,24.60026918,24.6204576,24.64064603,24.66083445,24.68102288,24.70121131,24.72139973,24.74158816,24.76177658,24.78196501,24.80215343,24.82234186,24.84253028,24.86271871,24.88290713,24.90309556,24.92328398,24.94347241,24.96366083,24.98384926,25.00403769,25.02422611,25.04441454,25.06460296,25.08479139,25.10497981,25.12516824,25.14535666,25.16554509,25.18573351,25.20592194,25.22611036,25.24629879,25.26648721,25.28667564,25.30686406,25.32705249,25.34724092,25.36742934,25.38761777,25.40780619,25.42799462,25.44818304,25.46837147,25.48855989,25.50874832,25.52893674,25.54912517,25.56931359,25.58950202,25.60969044,25.62987887,25.65006729,25.67025572,25.69044415,25.71063257,25.730821,25.75100942,25.77119785,25.79138627,25.8115747,25.83176312,25.85195155,25.87213997,25.8923284,25.91251682,25.93270525,25.95289367,25.9730821,25.99327052,26.01345895,26.03364738,26.0538358,26.07402423,26.09421265,26.11440108,26.1345895,26.15477793,26.17496635,26.19515478,26.2153432,26.23553163,26.25572005,26.27590848,26.2960969,26.31628533,26.33647376,26.35666218,26.37685061,26.39703903,26.41722746,26.43741588,26.45760431,26.47779273,26.49798116,26.51816958,26.53835801,26.55854643,26.57873486,26.59892328,26.61911171,26.63930013,26.65948856,26.67967699,26.69986541,26.72005384,26.74024226,26.76043069,26.78061911,26.80080754,26.82099596,26.84118439,26.86137281,26.88156124,26.90174966,26.92193809,26.94212651,26.96231494,26.98250336,27.00269179,27.02288022,27.04306864,27.06325707,27.08344549,27.10363392,27.12382234,27.14401077,27.16419919,27.18438762,27.20457604,27.22476447,27.24495289,27.26514132,27.28532974,27.30551817,27.32570659,27.34589502,27.36608345,27.38627187,27.4064603,27.42664872,27.44683715,27.46702557,27.487214,27.50740242,27.52759085,27.54777927,27.5679677,27.58815612,27.60834455,27.62853297,27.6487214,27.66890983,27.68909825,27.70928668,27.7294751,27.74966353,27.76985195,27.79004038,27.8102288,27.83041723,27.85060565,27.87079408,27.8909825,27.91117093,27.93135935,27.95154778,27.9717362,27.99192463,28.01211306,28.03230148,28.05248991,28.07267833,28.09286676,28.11305518,28.13324361,28.15343203,28.17362046,28.19380888,28.21399731,28.23418573,28.25437416,28.27456258,28.29475101,28.31493943,28.33512786,28.35531629,28.37550471,28.39569314,28.41588156,28.43606999,28.45625841,28.47644684,28.49663526,28.51682369,28.53701211,28.55720054,28.57738896,28.59757739,28.61776581,28.63795424,28.65814266,28.67833109,28.69851952,28.71870794,28.73889637,28.75908479,28.77927322,28.79946164,28.81965007,28.83983849,28.86002692,28.88021534,28.90040377,28.92059219,28.94078062,28.96096904,28.98115747,29.0013459,29.02153432,29.04172275,29.06191117,29.0820996,29.10228802,29.12247645,29.14266487,29.1628533,29.18304172,29.20323015,29.22341857,29.243607,29.26379542,29.28398385,29.30417227,29.3243607,29.34454913,29.36473755,29.38492598,29.4051144,29.42530283,29.44549125,29.46567968,29.4858681,29.50605653,29.52624495,29.54643338,29.5666218,29.58681023,29.60699865,29.62718708,29.6473755,29.66756393,29.68775236,29.70794078,29.72812921,29.74831763,29.76850606,29.78869448,29.80888291,29.82907133,29.84925976,29.86944818,29.88963661,29.90982503,29.93001346,29.95020188,29.97039031,29.99057873,30.01076716,30.03095559,30.05114401,30.07133244,30.09152086,30.11170929,30.13189771,30.15208614,30.17227456,30.19246299,30.21265141,30.23283984,30.25302826,30.27321669,30.29340511,30.31359354,30.33378197,30.35397039,30.37415882,30.39434724,30.41453567,30.43472409,30.45491252,30.47510094,30.49528937,30.51547779,30.53566622,30.55585464,30.57604307,30.59623149,30.61641992,30.63660834,30.65679677,30.6769852,30.69717362,30.71736205,30.73755047,30.7577389,30.77792732,30.79811575,30.81830417,30.8384926,30.85868102,30.87886945,30.89905787,30.9192463,30.93943472,30.95962315,30.97981157,31,31.02018843,31.04037685,31.06056528,31.0807537,31.10094213,31.12113055,31.14131898,31.1615074,31.18169583,31.20188425,31.22207268,31.2422611,31.26244953,31.28263795,31.30282638,31.3230148,31.34320323,31.36339166,31.38358008,31.40376851,31.42395693,31.44414536,31.46433378,31.48452221,31.50471063,31.52489906,31.54508748,31.56527591,31.58546433,31.60565276,31.62584118,31.64602961,31.66621803,31.68640646,31.70659489,31.72678331,31.74697174,31.76716016,31.78734859,31.80753701,31.82772544,31.84791386,31.86810229,31.88829071,31.90847914,31.92866756,31.94885599,31.96904441,31.98923284,32.00942127,32.02960969,32.04979812,32.06998654,32.09017497,32.11036339,32.13055182,32.15074024,32.17092867,32.19111709,32.21130552,32.23149394,32.25168237,32.27187079,32.29205922,32.31224764,32.33243607,32.3526245,32.37281292,32.39300135,32.41318977,32.4333782,32.45356662,32.47375505,32.49394347,32.5141319,32.53432032,32.55450875,32.57469717,32.5948856,32.61507402,32.63526245,32.65545087,32.6756393,32.69582773,32.71601615,32.73620458,32.756393,32.77658143,32.79676985,32.81695828,32.8371467,32.85733513,32.87752355,32.89771198,32.9179004,32.93808883,32.95827725,32.97846568,32.9986541,33.01884253,33.03903096,33.05921938,33.07940781,33.09959623,33.11978466,33.13997308,33.16016151,33.18034993,33.20053836,33.22072678,33.24091521,33.26110363,33.28129206,33.30148048,33.32166891,33.34185734,33.36204576,33.38223419,33.40242261,33.42261104,33.44279946,33.46298789,33.48317631,33.50336474,33.52355316,33.54374159,33.56393001,33.58411844,33.60430686,33.62449529,33.64468371,33.66487214,33.68506057,33.70524899,33.72543742,33.74562584,33.76581427,33.78600269,33.80619112,33.82637954,33.84656797,33.86675639,33.88694482,33.90713324,33.92732167,33.94751009,33.96769852,33.98788694,34.00807537,34.0282638,34.04845222,34.06864065,34.08882907,34.1090175,34.12920592,34.14939435,34.16958277,34.1897712,34.20995962,34.23014805,34.25033647,34.2705249,34.29071332,34.31090175,34.33109017,34.3512786,34.37146703,34.39165545,34.41184388,34.4320323,34.45222073,34.47240915,34.49259758,34.512786,34.53297443,34.55316285,34.57335128,34.5935397,34.61372813,34.63391655,34.65410498,34.67429341,34.69448183,34.71467026,34.73485868,34.75504711,34.77523553,34.79542396,34.81561238,34.83580081,34.85598923,34.87617766,34.89636608,34.91655451,34.93674293,34.95693136,34.97711978,34.99730821,35.01749664,35.03768506,35.05787349,35.07806191,35.09825034,35.11843876,35.13862719,35.15881561,35.17900404,35.19919246,35.21938089,35.23956931,35.25975774,35.27994616,35.30013459,35.32032301,35.34051144,35.36069987,35.38088829,35.40107672,35.42126514,35.44145357,35.46164199,35.48183042,35.50201884,35.52220727,35.54239569,35.56258412,35.58277254,35.60296097,35.62314939,35.64333782,35.66352624,35.68371467,35.7039031,35.72409152,35.74427995,35.76446837,35.7846568,35.80484522,35.82503365,35.84522207,35.8654105,35.88559892,35.90578735,35.92597577,35.9461642,35.96635262,35.98654105,36.00672948,36.0269179,36.04710633,36.06729475,36.08748318,36.1076716,36.12786003,36.14804845,36.16823688,36.1884253,36.20861373,36.22880215,36.24899058,36.269179,36.28936743,36.30955585,36.32974428,36.34993271,36.37012113,36.39030956,36.41049798,36.43068641,36.45087483,36.47106326,36.49125168,36.51144011,36.53162853,36.55181696,36.57200538,36.59219381,36.61238223,36.63257066,36.65275908,36.67294751,36.69313594,36.71332436,36.73351279,36.75370121,36.77388964,36.79407806,36.81426649,36.83445491,36.85464334,36.87483176,36.89502019,36.91520861,36.93539704,36.95558546,36.97577389,36.99596231,37.01615074,37.03633917,37.05652759,37.07671602,37.09690444,37.11709287,37.13728129,37.15746972,37.17765814,37.19784657,37.21803499,37.23822342,37.25841184,37.27860027,37.29878869,37.31897712,37.33916555,37.35935397,37.3795424,37.39973082,37.41991925,37.44010767,37.4602961,37.48048452,37.50067295,37.52086137,37.5410498,37.56123822,37.58142665,37.60161507,37.6218035,37.64199192,37.66218035,37.68236878,37.7025572,37.72274563,37.74293405,37.76312248,37.7833109,37.80349933,37.82368775,37.84387618,37.8640646,37.88425303,37.90444145,37.92462988,37.9448183,37.96500673,37.98519515,38.00538358,38.02557201,38.04576043,38.06594886,38.08613728,38.10632571,38.12651413,38.14670256,38.16689098,38.18707941,38.20726783,38.22745626,38.24764468,38.26783311,38.28802153,38.30820996,38.32839838,38.34858681,38.36877524,38.38896366,38.40915209,38.42934051,38.44952894,38.46971736,38.48990579,38.51009421,38.53028264,38.55047106,38.57065949,38.59084791,38.61103634,38.63122476,38.65141319,38.67160162,38.69179004,38.71197847,38.73216689,38.75235532,38.77254374,38.79273217,38.81292059,38.83310902,38.85329744,38.87348587,38.89367429,38.91386272,38.93405114,38.95423957,38.97442799,38.99461642,39.01480485,39.03499327,39.0551817,39.07537012,39.09555855,39.11574697,39.1359354,39.15612382,39.17631225,39.19650067,39.2166891,39.23687752,39.25706595,39.27725437,39.2974428,39.31763122,39.33781965,39.35800808,39.3781965,39.39838493,39.41857335,39.43876178,39.4589502,39.47913863,39.49932705,39.51951548,39.5397039,39.55989233,39.58008075,39.60026918,39.6204576,39.64064603,39.66083445,39.68102288,39.70121131,39.72139973,39.74158816,39.76177658,39.78196501,39.80215343,39.82234186,39.84253028,39.86271871,39.88290713,39.90309556,39.92328398,39.94347241,39.96366083,39.98384926,40.00403769,40.02422611,40.04441454,40.06460296,40.08479139,40.10497981,40.12516824,40.14535666,40.16554509,40.18573351,40.20592194,40.22611036,40.24629879,40.26648721,40.28667564,40.30686406,40.32705249,40.34724092,40.36742934,40.38761777,40.40780619,40.42799462,40.44818304,40.46837147,40.48855989,40.50874832,40.52893674,40.54912517
